-29222.586630
-29188.774192
-29162.492991
-29159.680496
-29159.180497
-29168.274230
-29164.992986
-29184.680450
-29197.399177
-29206.180410
-29179.867959
-29166.711733
-29190.774189
-29218.899137
-29232.274112
-29222.774130
-29202.680417
-29202.055418
-29160.930494
-29099.649357
-29116.680576
-29163.305489
-29190.461689
-29175.586717
-29137.961786
-29139.993033
-29136.680539
-29137.399287
-29165.524235
-29172.899222
-29149.868014
-29128.118055
-29133.961794
-29159.024247
-29166.492984
-29168.617980
-29173.149221
-29163.524239
-29120.461819
-29095.993114
-29087.024380
-29113.930581
-29149.086766
-29135.774290
-29074.649403
-29047.836953
-29068.430665
-29079.899394
-29093.899368
-29106.774344
-29126.805557
-29115.586828
-29101.555604
-29116.368076
-29129.118053
-29120.024319
-29098.836859
-29096.243113
-29105.055597
-29101.024355
-29069.524413
-29035.524476
-29037.149473
-29051.274447
-29076.618150
-29049.711949
-29045.461957
-29038.899469
-29050.211948
-29060.930679
-29079.086895
-29091.493122
-29077.649398
-29097.336861
-29084.368135
-29056.399437
-29062.680675
-29078.868146
-29092.680620
-29043.993210
-28998.243294
-29001.305789
-29075.243152
-29097.586861
-29047.430704
-29006.993278
-29009.462024
-29067.180667
-29077.305648
-29083.618137
-29088.805627
-29038.180721
-29021.618251
-29029.211987
-29051.524446
-29084.711885
-29085.743133
-29079.618144
-29064.180673
-29013.493266
-29002.962036
-29019.055756
-29042.118213
-29014.180765
-28983.743321
-28990.649559
-28990.712058
-28995.524550
-29008.680775
-29004.868282
-28980.212078
-28980.524577
-28997.243296
-28981.930825
-29007.024528
-29025.399494
-29014.524514
-28995.055800
-29015.743262
-29006.118280
-28960.837114
-28963.899608
-28949.368385
-28999.493292
-29039.930717
-28970.555846
-28908.680960
-28886.087252
-28876.493519
-28906.899713
-28934.712162
-28936.493409
-28928.399674
-28921.368437
-28871.274779
-28846.337325
-28879.306014
-28934.493412
-28965.993354
-28958.430868
-28920.024689
-28843.368581
-28788.181183
-28845.462327
-28840.837335
-28802.462406
-28797.587415
-28829.618606
-28890.930993
-28913.587201
-28864.149792
-28814.087385
-28817.337379
-28818.649876
-28787.087435
-28773.462460
-28788.868681
-28823.149868
-28804.899902
-28740.056272
-28730.556289
-28739.118773
-28755.524993
-28757.931239
-28772.181212
-28779.431199
-28783.712441
-28744.868763
-28720.556308
-28722.712554
-28680.431382
-28698.587598
-28740.868770
-28753.618746
-28749.493754
-28745.618761
-28708.525080
-28702.368841
-28712.493822
-28699.087597
-28723.337552
-28716.993814
-28681.712629
-28684.931373
-28712.681322
-28706.650083
-28652.556433
-28608.525265
-28587.275304
-28605.744020
-28643.337700
-28697.462600
-28771.556213
-28782.681193
-28721.150056
-28641.900203
-28589.525300
-28579.931567
-28618.431496
-28664.806411
-28704.431337
-28722.525054
-28713.181321
-28699.431347
-28666.900157
-28678.493885
-28697.025101
-28667.837655
-28617.681498
-28644.775198
-28707.337582
-28731.118788
-28763.774978
-28757.243740
-28734.712531
-28734.806281
-28764.056227
-28815.931131
-28822.431119
-28832.774850
-28786.431186
-28740.181271
-28707.618831
-28700.993844
-28698.150099
-28731.150038
-28774.524958
-28766.462473
-28725.525048
-28704.087588
-28705.181336
-28689.056366
-28694.025107
-28724.400050
-28755.712493
-28761.087483
-28747.462508
-28767.806220
-28788.368682
-28824.649865
-28806.743648
-28795.274920
-28825.899863
-28785.399938
-28754.399995
-28738.056275
-28763.056229
-28794.556171
-28816.462380
-28833.056100
-28777.056203
-28804.431153
-28842.931081
-28830.306105
-28842.368583
-28809.837393
-28755.368743
-28777.306203
-28825.962363
-28810.337392
-28783.524941
-28785.962437
-28761.931231
-28717.806313
-28722.931303
-28756.087492
-28710.650076
-28699.025097
-28712.712572
-28743.868765
-28729.525041
-28690.400113
-28694.212606
-28767.149971
-28793.181173
-28692.775109
-28633.181469
-28634.618966
-28679.243884
-28722.337554
-28735.681280
-28736.587528
-28719.087560
-28733.993783
-28718.712561
-28714.150069
-28698.775098
-28697.368850
-28691.712611
-28684.212625
-28715.743816
-28749.962503
-28720.712557
-28673.806394
-28671.900147
-28679.400134
-28694.900105
-28702.712591
-28715.806316
-28716.337565
-28692.212610
-28698.618848
-28688.618867
-28701.337593
-28689.931364
-28697.743850
-28699.337597
-28697.993849
-28725.993798
-28672.462646
-28687.275119
-28694.118856
-28684.962623
-28711.993823
-28706.306334
-28687.025120
-28657.712674
-28674.400143
-28672.181397
-28658.806422
-28648.900190
-28642.087703
-28631.993971
-28636.150214
-28656.962675
-28660.150169
-28660.306419
-28608.556515
-28617.025249
-28663.118914
-28660.962668
-28665.712659
-28618.243997
-28578.181571
-28574.525327
-28635.556465
-28678.900135
-28720.431308
-28734.275032
-28667.087656
-28637.493961
-28604.087773
-28607.619016
-28598.306533
-28587.212804
-28584.837808
-28615.337752
-28631.931471
-28639.087708
-28626.493981
-28607.650266
-28592.244045
-28568.431589
-28575.056576
-28572.775331
-28557.244109
-28593.744042
-28575.900325
-28527.556664
-28506.431703
-28523.900421
-28581.994064
-28599.431531
-28586.712805
-28597.400285
-28587.744053
-28568.025339
-28603.681524
-28555.712862
-28565.994093
-28569.212837
-28561.087852
-28583.494061
-28570.869084
-28600.837779
-28589.962799
-28568.744088
-28581.244065
-28607.681516
-28548.244126
-28516.994184
-28566.681592
-28581.837814
-28610.587761
-28605.306521
-28588.962801
-28562.275350
-28544.400383
-28566.525342
-28589.431550
-28632.056471
-28642.493952
-28585.994056
-28545.119132
-28535.962899
-28564.650346
-28543.087886
-28505.900454
-28562.025351
-28613.994004
-28571.525333
-28561.994101
-28536.150398
-28503.462959
-28508.900449
-28544.587883
-28560.744103
-28533.431653
-28519.650429
-28520.244178
-28537.275396
-28531.275407
-28524.681670
-28541.962888
-28525.962917
-28487.212989
-28475.619260
-28523.556672
-28523.650421
-28495.244224
-28506.494203
-28467.056776
-28437.275581
-28443.713069
-28470.713019
-28500.525464
-28517.056684
-28529.869160
-28466.181778
-28389.400669
-28384.181929
-28415.556871
-28433.556838
-28416.431870
-28396.369407
-28419.025615
-28463.994282
-28464.744280
-28476.744258
-28504.025458
-28463.900532
-28402.306896
-28393.244412
-28383.556930
-28399.494401
-28419.775613
-28413.494375
-28438.494329
-28451.025556
-28434.088087
-28375.525695
-28336.182018
-28311.838313
-28295.588343
-28356.025731
-28353.681985
-28298.057088
-28321.275795
-28372.525701
-28367.306960
-28355.463232
-28358.525727
-28301.557082
-28273.713383
-28267.338395
-28291.432101
-28323.525791
-28354.838233
-28356.869480
-28330.619528
-28311.244564
-28288.307106
-28311.619563
-28355.744482
-28339.150762
-28304.963325
-28288.463356
-28264.869650
-28266.150897
-28274.807131
-28274.307132
-28320.463297
-28337.807015
-28293.869596
-28301.557082
-28361.744471
-28336.713267
-28313.182060
-28345.838250
-28340.150760
-28369.494456
-28398.963152
-28420.806861
-28477.931756
-28479.338003
-28441.775573
-28431.025593
-28401.994396
-28376.931943
-28444.588068
-28472.338016
-28481.275500
-28484.681743
-28487.087989
-28505.681705
-28514.994187
-28506.806703
-28505.181706
-28500.181715
-28520.400427
-28499.681716
-28504.681706
-28497.212970
-28542.712886
-28575.619075
-28565.494094
-28571.025334
-28540.744140
-28524.119171
-28530.775408
-28552.994117
-28575.306576
-28609.525263
-28595.900288
-28561.150352
-28595.212789
-28588.900301
-28556.775360
-28586.275306
-28611.556509
-28597.275285
-28595.462789
-28608.900264
-28615.525252
-28574.837827
-28530.556659
-28586.025306
-28610.869010
-28592.087795
-28568.712838
-28566.619092
-28581.900314
-28609.306513
-28598.369033
-28570.462835
-28601.181528
-28616.462750
-28629.275226
-28603.994023
-28598.744033
-28609.181513
-28615.150252
-28624.056486
-28632.087721
-28655.900177
-28641.400204
-28634.087717
-28636.118964
-28639.962707
-28642.400202
-28653.650181
-28680.681381
-28681.618880
-28697.400100
-28694.868855
-28678.493885
-28660.431419
-28653.275182
-28589.181550
-28550.556622
-28519.806679
-28436.900582
-28373.869448
-28342.588256
-28333.025774
-28308.900818
-28248.182180
-28177.182312
-28106.807442
-28051.963793
-28017.713856
-27965.745202
-27915.370295
-27896.620330
-27871.151627
-27805.089249
-27738.620622
-27677.245735
-27640.683303
-27621.339589
-27546.464727
-27477.621104
-27422.496206
-27388.277519
-27426.777448
-27495.527321
-27535.027248
-27632.683318
-27758.464335
-27900.870322
-28049.651297
-28157.463598
-28272.057136
-28353.244486
-28451.744304
-28532.181656
-28554.900364
-28611.056510
-28676.087640
-28701.243843
-28727.150045
-28695.681354
-28616.056501
-28594.494041
-28588.712801
-28600.869029
-28598.806533
-28548.181626
-28529.337911
-28515.837936
-28503.306709
-28499.212967
-28539.681642
-28569.244087
-28575.150326
-28552.931617
-28531.931656
-28542.400387
-28531.212907
-28544.681633
-28552.931617
-28571.275333
-28562.900349
-28524.994169
-28482.900497
-28505.119206
-28535.806649
-28518.212931
-28535.837899
-28581.400315
-28534.119152
-28499.462966
-28526.681666
-28593.556542
-28610.275261
-28622.056490
-28584.056560
-28521.087926
-28510.025447
-28526.369166
-28546.900378
-28555.494113
-28546.556629
-28535.806649
-28567.525340
-28582.431563
-28603.806523
-28605.306521
-28558.744107
-28528.244163
-28536.150398
-28561.056602
-28530.337909
-28534.587901
-28562.119100
-28562.306600
-28555.462863
-28540.025391
-28554.650364
-28577.212822
-28565.931593
-28555.494113
-28557.462859
-28530.962908
-28502.275461
-28486.931739
-28498.681718
-28533.900402
-28527.494164
-28504.869206
-28484.869243
-28496.806721
-28515.181687
-28499.119217
-28498.119219
-28504.494207
-28507.994200
-28494.056726
-28508.431700
-28521.400426
-28523.712921
-28545.775381
-28534.900401
-28522.462924
-28518.431681
-28520.369177
-28499.525466
-28507.056702
-28535.244150
-28518.712931
-28505.650455
-28497.087971
-28476.119259
-28479.306753
-28503.650458
-28531.900406
-28556.150361
-28530.181659
-28500.181715
-28499.775466
-28490.431733
-28491.306731
-28494.962974
-28456.556795
-28456.838045
-28443.806819
-28447.619312
-28466.056778
-28477.244257
-28437.150581
-28430.306844
-28429.806845
-28404.681891
-28438.525579
-28489.619234
-28523.650421
-28540.119141
-28512.712942
-28461.713036
-28431.838091
-28420.869361
-28440.088076
-28489.837984
-28488.806736
-28480.900500
-28470.306770
-28480.806751
-28474.056763
-28431.838091
-28378.400690
-28388.806921
-28406.275638
-28393.681912
-28409.806882
-28445.744315
-28464.775530
-28449.744308
-28425.556853
-28425.775602
-28431.588092
-28459.869289
-28438.806828
-28404.963141
-28382.994431
-28378.400690
-28403.213144
-28374.619447
-28386.400675
-28397.119405
-28396.838156
-28394.525660
-28403.119394
-28417.119368
-28427.963098
-28401.556897
-28341.807007
-28341.150759
-28332.557025
-28327.213284
-28330.994527
-28295.650843
-28308.682069
-28337.900765
-28362.400719
-28375.431945
-28411.369379
-28398.994402
-28311.494563
-28275.963379
-28306.525823
-28314.713307
-28211.463498
-28179.713557
-28199.182271
-28226.838470
-28252.307173
-28254.932168
-28245.275936
-28260.932157
-28262.713404
-28258.557161
-28256.494665
-28238.588448
-28244.150938
-28253.275921
-28251.619674
-28244.244688
-28216.963488
-28207.151006
-28196.994775
-28201.713516
-28211.275999
-28219.744733
-28199.307271
-28160.213593
-28157.213599
-28160.432343
-28189.369789
-28209.588502
-28184.432298
-28128.057402
-28145.307371
-28190.713537
-28189.526039
-28145.838620
-28121.713664
-28102.526200
-28060.838777
-28068.963762
-28082.057487
-28089.401224
-28092.338718
-28041.057563
-28046.495053
-28049.213798
-28065.932517
-28082.119987
-28096.463711
-28076.744997
-28083.932484
-28061.401276
-28012.713866
-28021.682599
-28056.620034
-28079.307492
-28061.745025
-28069.932510
-28079.244993
-28083.901234
-28058.870030
-28005.432629
-28040.088815
-28037.807569
-28021.213850
-28024.713843
-28057.213783
-28093.307467
-28089.682473
-28094.307465
-28112.994930
-28111.682433
-28082.557486
-28078.119995
-28129.526150
-28120.619916
-28119.432418
-28140.182380
-28117.026173
-28107.682440
-28128.869901
-28127.494903
-28136.838636
-28144.026123
-28145.651120
-28138.994882
-28111.151184
-28131.338646
-28151.494859
-28155.963601
-28186.307295
-28227.869718
-28215.525991
-28158.369846
-28147.151117
-28146.213619
-28183.776049
-28176.463563
-28149.494863
-28171.869821
-28177.588561
-28161.432341
-28148.151115
-28151.213610
-28175.432315
-28208.369754
-28207.369756
-28209.088503
-28221.369730
-28187.276043
-28172.776070
-28184.713548
-28186.994793
-28177.463561
-28195.557278
-28214.494743
-28192.026034
-28213.869744
-28244.963436
-28251.525924
-28229.494715
-28219.494733
-28215.838490
-28217.963486
-28205.994758
-28199.776020
-28200.588518
-28187.619792
-28208.213504
-28200.744768
-28205.338510
-28237.432200
-28229.775964
-28233.088458
-28229.244715
-28222.150979
-28223.432226
-28209.651002
-28221.463480
-28233.307208
-28223.307226
-28227.119719
-28231.682211
-28232.150960
-28281.463369
-28303.088329
-28252.588422
-28215.400991
-28197.713524
-28185.651046
-28204.182262
-28234.869705
-28261.432156
-28253.182171
-28234.244706
-28234.900955
-28240.307195
-28226.775970
-28248.182180
-28244.369687
-28241.213443
-28254.525919
-28239.463447
-28189.026040
-28188.807290
-28212.525996
-28192.776033
-28192.307284
-28192.369784
-28203.713513
-28206.401008
-28198.026023
-28195.557278
-28197.276024
-28198.557272
-28180.682305
-28177.682311
-28197.151025
-28219.244734
-28216.213489
-28201.088517
-28184.276048
-28182.588552
-28199.994769
-28189.338539
-28183.182301
-28198.869772
-28199.776020
-28181.244804
-28162.744838
-28175.119815
-28183.369800
-28190.307287
-28195.151028
-28198.151023
-28184.026049
-28168.151078
-28184.651048
-28197.869773
-28195.119778
-28176.307313
-28180.119806
-28167.557329
-28144.244872
-28143.463624
-28141.432378
-28134.369891
-28151.994858
-28202.401015
-28187.526042
-28180.182306
-28161.869840
-28133.088643
-28150.338611
-28174.713566
-28177.651061
-28125.119908
-28121.651164
-28159.276095
-28165.557333
-28187.682292
-28199.619770
-28191.776035
-28167.619829
-28152.432357
-28139.807381
-28160.151093
-28147.932366
-28130.307398
-28146.901118
-28137.401135
-28146.869868
-28154.619853
-28145.182371
-28152.338608
-28177.713561
-28183.963549
-28142.151126
-28134.901140
-28159.026095
-28157.713598
-28142.651125
-28139.276132
-28112.932430
-28109.026188
-28098.494957
-28121.838664
-28160.838592
-28137.276135
-28124.807408
-28123.057412
-28119.276169
-28119.432418
-28124.213659
-28132.338644
-28144.588622
-28148.963614
-28135.276139
-28138.369883
-28145.151121
-28162.932338
-28181.526054
-28170.869823
-28185.619796
-28216.463489
-28253.619670
-28205.307260
-28095.807462
-28026.088841
-28016.495109
-28071.370007
-28080.307491
-28090.338722
-28091.557470
-28079.494992
-28060.432527
-28079.213743
-28074.182502
-28068.338763
-28078.276244
-28055.057537
-28023.120096
-28035.432574
-28041.620062
-28024.870093
-28013.432614
-28006.807626
-28013.526364
-28037.557570
-28022.713847
-28002.682634
-28005.276379
-28034.057576
-28030.338833
-28029.213835
-28038.495068
-28045.338805
-28065.901267
-28055.682536
-28059.588779
-28019.745103
-27982.495171
-28001.213887
-28004.620130
-27963.588956
-27933.182762
-27930.089018
-27932.026515
-27954.088974
-27929.057770
-27870.870378
-27890.776591
-27895.464082
-27915.964044
-27909.745306
-27902.432819
-27908.370308
-27914.307797
-27882.401606
-27856.089155
-27880.807859
-27881.401608
-27901.182822
-27919.057789
-27918.245290
-27872.557874
-27845.776674
-27853.120410
-27860.964146
-27867.964133
-27873.464123
-27876.901616
-27860.276647
-27861.651645
-27853.745409
-27842.745430
-27871.995376
-27894.245334
-27911.839052
-27892.339088
-27890.401592
-27888.307845
-27889.964092
-27920.214036
-27955.963970
-27960.307712
-27959.588964
-27927.776522
-27899.745324
-27967.245200
-28006.463877
-27979.088928
-27963.088957
-27967.963948
-27984.182668
-27983.338920
-27996.432646
-28027.620088
-28048.620049
-28045.276305
-28066.151267
-28093.588716
-28095.776212
-28098.557457
-28083.463735
-28070.026260
-28061.151276
-28073.963752
-28064.963769
-28065.432518
-28105.963693
-28113.307430
-28084.088734
-28072.463755
-28089.119974
-28091.369970
-28128.994901
-28138.994882
-28092.026219
-28096.807460
-28093.557466
-28086.338729
-28095.807462
-28121.963664
-28141.369878
-28136.651136
-28118.119921
-28076.713747
-28060.901276
-28068.182513
-28108.369939
-28103.057449
-28076.338748
-28086.151230
-28085.182482
-28081.494988
-28083.932484
-28099.963704
-28106.369942
-28117.963671
-28115.401176
-28094.057465
-28099.682455
-28132.838644
-28166.369832
-28130.619898
-28113.776179
-28113.963678
-28114.807427
-28114.494927
-28117.744921
-28154.557353
-28150.776110
-28148.651114
-28183.682300
-28216.713489
-28212.369747
-28218.557235
-28221.213480
-28231.838461
-28235.838453
-28193.307282
-28172.213571
-28167.526079
-28151.088610
-28132.401144
-28114.401178
-28067.932513
-28024.901343
-27995.870147
-27942.776495
-27916.901543
-27886.026600
-27829.245455
-27745.214360
-27681.245728
-27654.214528
-27589.995897
-27542.683484
-27522.621021
-27485.964839
-27435.214933
-27345.808848
-27286.996456
-27248.590277
-27236.246550
-27189.652886
-27115.215524
-27048.278148
-27004.496978
-27006.184475
-27037.715667
-27105.778041
-27181.496651
-27270.746486
-27364.902562
-27493.902324
-27623.652084
-27744.276862
-27859.682898
-27943.651493
-27998.432642
-28008.588873
-28073.245004
-28161.401091
-28216.494739
-28254.557169
-28250.588426
-28249.119679
-28206.807257
-28152.901106
-28127.057404
-28139.432381
-28125.588657
-28102.807449
-28092.463718
-28098.932456
-28097.244959
-28092.838717
-28080.151241
-28054.057539
-28087.713727
-28101.963701
-28103.119948
-28106.463692
-28105.369944
-28125.369907
-28149.401113
-28138.526133
-28143.338624
-28118.776170
-28079.151243
-28066.026267
-28078.244994
-28055.370037
-28074.776251
-28089.276224
-28080.182491
-28071.213757
-28073.776253
-28103.682447
-28140.369880
-28160.369843
-28128.057402
-28099.869954
-28055.745036
-28064.682519
-28092.713718
-28089.776223
-28072.245006
-28057.963782
-28070.151259
-28085.338731
-28086.776229
-28059.495029
-28043.651308
-28049.807547
-28063.745021
-28101.713701
-28104.151197
-28101.963701
-28106.713692
-28112.526181
-28112.807431
-28076.119998
-28064.182520
-28085.932480
-28104.244946
-28093.651216
-28104.088697
-28110.369935
-28109.557437
-28116.619924
-28112.369931
-28133.557392
-28110.276185
-28070.620009
-28060.463777
-28058.963780
-28067.776264
-28075.401250
-28081.244989
-28102.213700
-28120.588666
-28106.994941
-28100.088704
-28109.182437
-28108.276189
-28102.026200
-28083.119985
-28081.244989
-28087.213728
-28119.744918
-28116.932423
-28107.807440
-28082.119987
-28046.526303
-28030.120083
-28021.370100
-28050.838795
-28057.120033
-28053.370040
-28071.932506
-28064.807519
-28038.745067
-28030.057583
-28055.901286
-28095.744962
-28109.307437
-28075.557499
-28074.120002
-28084.557483
-28043.932558
-27995.276398
-27998.932641
-28030.057583
-28013.713864
-27993.151402
-28008.651373
-28027.026339
-28067.901264
-28064.276270
-28081.182489
-28110.338685
-28109.338687
-28068.463762
-28026.245090
-28008.088874
-28014.495112
-28057.620033
-28048.588799
-28031.901330
-28043.682558
-28029.807584
-28020.557601
-28040.526314
-28057.588783
-28029.463835
-28027.526338
-28009.307622
-27985.338916
-27980.057676
-28002.432634
-28027.526338
-28037.995069
-28013.182615
-27988.463910
-27994.057650
-27990.276407
-28004.370131
-28007.182626
-27999.807639
-27976.838932
-27968.776447
-27971.901441
-27959.713963
-27959.213964
-27962.120209
-27957.245218
-27936.589006
-27945.557740
-27921.089035
-27909.557806
-27928.901520
-27963.463957
-27980.588925
-27947.526486
-27955.651471
-27966.338951
-27941.557747
-27937.745254
-27943.963993
-27967.901448
-27950.401481
-27913.620299
-27890.370342
-27897.370329
-27900.807822
-27884.682852
-27878.245364
-27876.307868
-27869.120381
-27854.182908
-27879.089112
-27885.057851
-27904.432816
-27901.401571
-27879.089112
-27892.120338
-27881.089109
-27871.745376
-27846.776672
-27872.370375
-27880.964109
-27833.120447
-27811.901737
-27817.964225
-27847.995420
-27838.901687
-27804.714250
-27815.995479
-27848.557919
-27821.807968
-27784.776787
-27768.058068
-27780.120545
-27823.964214
-27792.339273
-27780.839294
-27801.683005
-27795.339267
-27806.557996
-27791.839274
-27787.995531
-27768.120567
-27769.620565
-27773.058058
-27808.964242
-27788.433030
-27728.495641
-27727.839392
-27730.526887
-27736.589376
-27726.026895
-27749.964351
-27772.433059
-27773.464308
-27753.120595
-27705.714433
-27719.995656
-27757.620587
-27762.495578
-27747.120606
-27729.026890
-27739.901870
-27759.089334
-27693.120706
-27672.214495
-27716.776912
-27738.839372
-27754.401843
-27749.745601
-27748.870603
-27744.058112
-27743.370613
-27786.401784
-27807.526745
-27775.183054
-27767.495569
-27811.057988
-27834.839194
-27823.370465
-27797.808013
-27781.933042
-27804.776750
-27803.433002
-27800.370508
-27791.808024
-27804.620500
-27794.870518
-27786.151784
-27811.339238
-27817.839226
-27828.495456
-27831.745450
-27850.495415
-27866.901635
-27860.151647
-27868.651632
-27845.339175
-27844.464176
-27836.245442
-27832.089199
-27845.245425
-27835.151694
-27826.870459
-27845.495424
-27876.839117
-27907.276560
-27889.151594
-27835.839192
-27809.401741
-27818.682974
-27853.182910
-27893.839085
-27900.245323
-27890.682841
-27901.182822
-27882.932855
-27846.214173
-27862.526643
-27886.276599
-27903.057818
-27916.714043
-27904.745315
-27887.495347
-27867.339134
-27856.245405
-27860.432897
-27873.057874
-27909.495306
-27933.839011
-27927.026524
-27937.651504
-27965.057704
-27934.214011
-27912.151551
-27905.401564
-27901.370321
-27904.401566
-27926.682774
-27983.151420
-27968.182698
-27929.714019
-27921.370284
-27913.464049
-27920.870285
-27902.339069
-27886.057850
-27918.620289
-27908.245309
-27860.495397
-27850.057916
-27836.651691
-27831.245451
-27839.839185
-27866.651635
-27895.932831
-27910.901554
-27923.026531
-27903.339068
-27912.276551
-27960.745212
-27938.245253
-27926.089026
-27888.745345
-27868.370382
-27853.964159
-27865.807887
-27861.964144
-27885.557850
-27899.245325
-27891.745339
-27920.714035
-27901.964070
-27909.245307
-27919.307788
-27942.526495
-27941.651497
-27886.120349
-27832.745448
-27799.401760
-27824.432963
-27849.620417
-27876.557867
-27883.026605
-27903.932817
-27926.432775
-27906.714061
-27853.714159
-27861.307895
-27917.370292
-27938.651502
-27924.714028
-27876.932866
-27884.464102
-27901.464071
-27895.964081
-27924.339029
-27921.526534
-27938.589002
-27911.464053
-27924.557778
-27984.713917
-27974.963935
-27918.682789
-27865.401638
-27874.214121
-27865.807887
-27797.995512
-27797.995512
-27839.839185
-27853.651659
-27861.370395
-27868.807881
-27826.089210
-27838.651687
-27878.057864
-27904.995315
-27862.995392
-27801.339256
-27801.714255
-27812.307986
-27871.307877
-27920.151537
-27922.901531
-27883.307855
-27858.151651
-27819.964222
-27815.651730
-27820.182971
-27822.714217
-27829.651704
-27811.057988
-27829.057955
-27837.526689
-27834.432945
-27874.182871
-27936.682756
-27928.526521
-27877.682865
-27865.714137
-27906.464062
-27862.307893
-27835.526693
-27861.464145
-27855.182907
-27767.058069
-27737.839373
-27805.370499
-27834.026696
-27802.120505
-27819.620472
-27855.901655
-27809.745491
-27782.933040
-27784.776787
-27806.964246
-27815.464230
-27806.839246
-27845.870424
-27860.151647
-27851.526663
-27867.901633
-27887.495347
-27905.276564
-27923.339031
-27877.464115
-27836.745441
-27817.370476
-27808.495493
-27819.651722
-27861.370395
-27878.182864
-27881.089109
-27848.214169
-27848.651669
-27863.901640
-27860.870396
-27888.401595
-27841.870431
-27777.683050
-27792.964272
-27758.339336
-27778.808048
-27833.651696
-27824.370464
-27780.058045
-27788.776779
-27779.776796
-27745.433109
-27731.620635
-27732.995632
-27796.839264
-27808.682992
-27774.714305
-27782.339291
-27764.776824
-27761.745579
-27741.433117
-27720.151906
-27691.214460
-27671.245746
-27666.870755
-27655.745775
-27691.683209
-27696.839449
-27701.401941
-27687.401967
-27644.027047
-27650.120785
-27670.933247
-27692.870706
-27676.276987
-27720.526905
-27711.120673
-27653.339530
-27586.777153
-27581.652162
-27631.152071
-27660.527016
-27678.933232
-27674.870740
-27638.370807
-27599.527129
-27574.027176
-27608.745862
-27634.995813
-27665.089508
-27683.276974
-27745.526859
-27736.776875
-27670.089499
-27613.777103
-27595.027137
-27637.058310
-27628.433326
-27617.589596
-27615.808349
-27626.620829
-27649.620786
-27628.277076
-27654.652027
-27719.745657
-27760.808081
-27671.683246
-27631.495820
-27652.183282
-27651.308283
-27653.433279
-27710.245674
-27780.714294
-27761.245580
-27744.776861
-27787.120532
-27808.557993
-27752.464346
-27709.995675
-27734.714379
-27765.933071
-27793.526771
-27804.995499
-27839.026686
-27875.620369
-27909.651556
-27916.901543
-27864.807889
-27825.307962
-27815.620480
-27795.933016
-27857.495402
-27930.870267
-27901.432821
-27866.714135
-27854.589158
-27872.495375
-27916.557793
-27866.901635
-27859.776648
-27898.339077
-27936.464006
-27900.557823
-27919.214038
-27934.182761
-27938.620252
-27954.088974
-28018.620105
-28044.463807
-27997.307644
-27902.620319
-27890.901591
-27932.245264
-27922.057783
-27908.807807
-27912.620300
-27928.307771
-27938.182753
-27872.745374
-27871.870376
-27841.807931
-27799.964259
-27854.745407
-27899.214075
-27943.651493
-28002.495134
-28026.338840
-28013.682614
-27985.713915
-27944.088992
-27890.057842
-27865.589137
-27949.088983
-27997.495144
-27977.651430
-27934.714010
-27962.932707
-27994.995148
-28033.182578
-28007.682625
-27998.088893
-28011.307618
-28061.370026
-28112.651181
-28137.494885
-28116.213674
-28081.744988
-27932.339014
-27859.682898
-27845.370425
-27850.589165
-27856.432904
-27794.058020
-27725.433146
-27690.620711
-27661.058265
-27575.120924
-27519.339777
-27514.808536
-27497.464818
-27502.371058
-27419.652461
-27311.340161
-27197.465372
-27148.621712
-27178.027908
-27139.184230
-27048.653147
-26977.872028
-26930.247116
-26844.059775
-26839.059784
-26864.903486
-26911.153401
-26985.840763
-27021.403197
-27128.184250
-27164.871682
-27238.371546
-27397.090003
-27518.714778
-27629.120824
-27666.433255
-27734.995629
-27816.901727
-27935.214009
-28041.682562
-28080.901240
-28048.276300
-28002.495134
-28027.838838
-28105.026195
-28136.401137
-28107.026191
-28024.651343
-27977.620180
-27965.963952
-27944.557741
-27866.745385
-27839.620435
-27833.620446
-27856.745404
-27890.682841
-27890.714091
-27936.464006
-27962.932707
-27947.307736
-28016.182609
-27985.026417
-27919.245288
-27888.182846
-27883.432854
-27910.589054
-27920.057787
-27905.464064
-27928.745271
-27972.495190
-27891.151590
-27855.651656
-27918.495290
-27909.370306
-27925.057777
-27940.995248
-27945.588990
-27985.088917
-27989.557658
-27983.995169
-28010.276370
-27973.245188
-27926.276525
-27886.557849
-27921.120285
-27923.401531
-27889.839093
-27891.370340
-27909.620306
-27904.776565
-27938.120253
-27964.620204
-27966.838950
-27972.651440
-27948.526484
-27897.807828
-27904.839065
-27936.370257
-27907.964059
-27885.120351
-27920.932785
-27972.838939
-28006.057628
-28012.120117
-27977.526431
-27945.557740
-27914.089048
-27896.901579
-27930.807767
-27971.745191
-27900.464073
-27897.339079
-27936.526506
-27934.839009
-27964.307705
-27987.963911
-28019.057604
-28009.620121
-28016.526358
-27971.713941
-27928.901520
-27937.682754
-27947.651486
-27974.495186
-27969.338946
-27960.151463
-27985.120166
-27956.463969
-27952.995226
-27967.120200
-27968.807697
-27981.870172
-27982.713921
-27960.401462
-27933.651512
-27951.963978
-28011.276368
-28003.932632
-27939.026502
-27916.901543
-27912.464051
-27930.495267
-27982.120172
-28035.651323
-27983.713919
-27970.213944
-28018.932604
-28005.870128
-27958.307716
-27911.307803
-27908.620308
-27889.432843
-27884.276603
-27858.339151
-27886.557849
-27927.932772
-27926.839024
-27956.963969
-27946.870237
-27933.714011
-27925.245277
-27938.464003
-27949.307733
-27924.651528
-27925.245277
-27930.839017
-27940.526499
-27928.714021
-27930.776517
-27932.526514
-27903.651567
-27905.307814
-27922.714032
-27917.745291
-27916.182794
-27927.745273
-27906.464062
-27881.339108
-27873.464123
-27863.339142
-27878.120364
-27878.026614
-27895.620332
-27919.682787
-27947.963985
-27910.964054
-27872.714124
-27900.182823
-27919.745287
-27955.495221
-27947.463986
-27916.870293
-27888.401595
-27901.214072
-27923.526530
-27926.151525
-27915.245296
-27855.151657
-27861.839144
-27847.401671
-27830.620452
-27854.464158
-27849.526667
-27840.401684
-27897.714078
-27967.776449
-27901.370321
-27852.995411
-27873.120373
-27899.932824
-27901.464071
-27883.964103
-27855.245406
-27845.745424
-27829.682954
-27816.495478
-27839.682935
-27856.557904
-27822.995466
-27783.276789
-27775.839303
-27801.464256
-27839.995435
-27867.339134
-27849.339167
-27796.370515
-27758.808085
-27761.464330
-27782.933040
-27756.589339
-27749.683102
-27762.808077
-27772.120560
-27750.558100
-27732.026884
-27732.870633
-27752.901846
-27751.276849
-27732.183134
-27717.183162
-27716.745662
-27726.683144
-27725.870646
-27719.589407
-27711.464422
-27737.183125
-27752.620596
-27737.839373
-27753.870594
-27752.214347
-27737.495624
-27730.714387
-27716.089414
-27708.839427
-27748.683103
-27745.776859
-27665.839506
-27677.839484
-27693.933205
-27685.526970
-27683.464474
-27673.339493
-27682.245726
-27672.620744
-27700.058193
-27715.901914
-27722.995651
-27701.183191
-27674.683240
-27662.589512
-27694.245704
-27716.964412
-27697.308198
-27678.058234
-27638.245807
-27616.652097
-27596.777134
-27632.870817
-27708.933177
-27696.870699
-27686.026969
-27714.870666
-27740.245619
-27743.276863
-27729.433139
-27717.651911
-27703.683187
-27698.558196
-27701.839440
-27698.651946
-27706.745681
-27758.901834
-27779.683046
-27757.339337
-27745.245610
-27753.464345
-27762.308078
-27712.683170
-27695.901951
-27701.120691
-27735.370628
-27787.558032
-27786.276784
-27775.933053
-27733.808131
-27728.464391
-27760.933081
-27811.089238
-27799.214260
-27783.901788
-27815.464230
-27791.339275
-27743.620613
-27755.933090
-27826.526710
-27840.339184
-27815.964229
-27781.651792
-27774.745555
-27829.120455
-27854.370408
-27838.995436
-27827.120458
-27812.495485
-27806.057997
-27816.182979
-27845.182925
-27877.401616
-27865.807887
-27798.870511
-27809.839240
-27854.651658
-27862.026644
-27864.182890
-27836.495441
-27808.589243
-27818.995473
-27846.276673
-27834.276695
-27851.182914
-27860.339147
-27867.651634
-27905.651563
-27909.932805
-27891.401590
-27857.995401
-27853.901659
-27838.464187
-27847.370421
-27841.995431
-27828.214206
-27847.495421
-27879.026613
-27884.026603
-27847.089172
-27856.964153
-27864.651639
-27830.932951
-27794.808018
-27767.026819
-27773.683057
-27814.151732
-27840.089184
-27821.745468
-27810.432989
-27787.339282
-27786.214284
-27855.182907
-27925.714026
-27925.401527
-27901.401571
-27814.339232
-27773.901807
-27855.245406
-27923.714030
-27883.589104
-27856.901653
-27883.401604
-27897.339079
-27836.026692
-27826.214210
-27825.307962
-27792.651772
-27809.870490
-27813.995483
-27840.495434
-27877.870365
-27892.776587
-27863.776641
-27846.807922
-27834.182945
-27838.214188
-27843.151679
-27845.839174
-27873.651622
-27906.307812
-27899.620324
-27872.901624
-27850.151666
-27823.151716
-27788.339280
-27795.120518
-27807.964244
-27826.370460
-27842.901679
-27864.807889
-27870.026629
-27861.057896
-27885.120351
-27896.370330
-27901.651571
-27868.964131
-27868.620382
-27885.339101
-27873.339123
-27860.307897
-27880.089111
-27846.714172
-27802.026755
-27791.964273
-27790.120527
-27842.276680
-27887.932846
-27898.151577
-27853.464160
-27850.745415
-27889.307844
-27862.589143
-27836.932940
-27863.589141
-27878.682863
-27853.839159
-27844.651676
-27849.245418
-27828.089207
-27842.589180
-27856.057905
-27852.089162
-27841.932931
-27846.245423
-27852.682911
-27859.839148
-27890.714091
-27879.214112
-27881.807857
-27870.901628
-27841.182932
-27851.182914
-27844.057927
-27804.370500
-27790.245527
-27788.620530
-27786.276784
-27829.026705
-27865.120388
-27858.964150
-27830.026703
-27831.620450
-27835.651693
-27810.839239
-27802.464254
-27800.151758
-27822.932966
-27825.995461
-27794.995518
-27764.401824
-27748.776853
-27759.714333
-27753.589344
-27767.745568
-27791.495524
-27822.901716
-27812.964235
-27782.151792
-27769.151816
-27754.401843
-27768.589317
-27756.995588
-27777.245551
-27790.933025
-27780.120545
-27772.433059
-27756.089340
-27765.151823
-27745.214360
-27746.464357
-27744.808111
-27742.495615
-27758.745585
-27776.995551
-27804.589250
-27818.589224
-27824.245464
-27764.464324
-27721.839403
-27725.558146
-27724.558148
-27705.714433
-27672.901993
-27673.839492
-27676.558237
-27678.183234
-27673.808242
-27687.714466
-27699.870694
-27692.964456
-27690.901960
-27682.839475
-27650.058286
-27637.933308
-27659.433268
-27660.089517
-27684.464472
-27695.745701
-27666.714505
-27651.652033
-27669.870749
-27711.464422
-27728.651890
-27715.901914
-27685.870719
-27655.339526
-27641.714551
-27664.745758
-27716.964412
-27720.245656
-27702.526939
-27690.120712
-27700.964442
-27719.151908
-27724.714398
-27728.683140
-27746.745607
-27763.339326
-27764.370574
-27757.808087
-27751.214349
-27781.089293
-27818.932974
-27829.089205
-27841.401682
-27844.870426
-27842.214181
-27832.526698
-27814.620482
-27826.526710
-27849.776667
-27850.745415
-27842.120431
-27862.682893
-27905.120314
-27938.714002
-27944.901491
-27939.245251
-27924.307779
-27926.839024
-27955.713971
-27949.307733
-27936.432756
-27934.557760
-27960.776461
-27966.120202
-27943.682743
-27948.401484
-27973.088939
-27999.088891
-27970.651443
-27947.151487
-27953.901474
-27966.276451
-27950.338981
-27935.307759
-27937.057755
-27950.432731
-27992.526403
-27979.651427
-27983.588919
-27995.932647
-28015.463860
-28009.245122
-27979.995176
-27977.963930
-27969.932695
-27967.901448
-27936.432756
-27955.807721
-27976.682682
-27976.745182
-27999.870139
-28007.807625
-28013.651364
-28003.401383
-28007.338875
-28018.651355
-28035.713823
-28042.088811
-28025.526342
-28045.995054
-28078.401244
-28098.901206
-28107.588690
-28109.557437
-28104.401196
-28096.526211
-28096.807460
-28089.463724
-28132.369894
-28160.244843
-28153.338606
-28130.338648
-28106.369942
-28081.807488
-28059.182530
-28040.182565
-28024.682593
-28006.338877
-27955.338972
-27906.901561
-27874.057872
-27839.120436
-27810.901738
-27760.276832
-27688.245715
-27606.620866
-27547.214726
-27439.777424
-27398.777500
-27369.121305
-27319.152647
-27274.215230
-27222.652825
-27164.059184
-27107.496788
-27084.621830
-27057.746880
-26998.496990
-26933.747109
-26889.465941
-26914.059646
-26989.153257
-27063.153120
-27117.653019
-27196.621623
-27300.121432
-27419.902461
-27549.370972
-27685.620720
-27802.839253
-27858.870400
-27920.182786
-27984.901417
-28039.682566
-28099.057456
-28114.026178
-28147.682366
-28180.682305
-28177.994810
-28133.994891
-28129.619899
-28138.682383
-28128.557401
-28102.369950
-28052.963791
-28040.245065
-28026.713840
-28000.901387
-27988.151411
-28027.682588
-28056.963784
-28037.182570
-28034.432575
-28024.463844
-28010.838869
-27987.745162
-28002.620134
-28037.995069
-28058.026282
-28068.526262
-28016.932608
-28005.338879
-28010.807619
-28020.276352
-28027.120089
-28039.026317
-28037.151320
-28016.182609
-28000.838887
-28000.182639
-28027.495088
-28032.120080
-28014.120113
-28022.526347
-28027.307589
-28015.463860
-28032.870078
-28050.838795
-28052.401292
-28052.120043
-28011.432618
-28007.557625
-28036.057572
-28050.807545
-28061.182526
-28048.026300
-28031.526331
-28022.463847
-28011.651367
-28020.120102
-28056.120035
-28064.588770
-28032.713829
-28035.682573
-28036.901321
-28044.807556
-28040.651314
-28060.276278
-28089.963723
-28111.557433
-28098.526207
-28067.838764
-28073.838753
-28069.151261
-28063.463772
-28056.588784
-28042.932560
-28039.182567
-28032.370079
-28037.401320
-28045.682555
-28057.557533
-28042.276311
-28024.526344
-28023.870095
-28043.901308
-28063.120022
-28042.370061
-28037.745069
-28046.463803
-28047.620051
-28009.932621
-28002.370135
-28019.213853
-28029.526334
-28055.932536
-28068.495012
-28078.869993
-28072.276255
-28057.151283
-28017.182607
-28005.870128
-28030.807582
-28034.963824
-28045.120056
-28036.995071
-28029.495084
-28046.213804
-28081.119989
-28056.776284
-28034.620075
-28042.557560
-28054.213789
-28077.119996
-28069.120011
-28066.838765
-28069.620010
-28075.088750
-28067.557514
-28046.588803
-28051.026295
-28039.401316
-28026.901339
-28016.557608
-27999.776389
-28008.620123
-28013.588864
-28020.276352
-28012.401366
-28015.151361
-28034.307576
-28037.807569
-28015.370111
-28007.370125
-28016.057609
-28028.432586
-28020.338851
-28013.120115
-28027.682588
-28030.526333
-28023.120096
-28007.495125
-28029.182585
-28025.932591
-28005.370129
-28009.682621
-28012.463866
-28012.338866
-27990.370157
-27987.932661
-28006.713877
-28033.151328
-28025.401342
-27991.432655
-27992.838902
-27989.120159
-28012.276366
-28028.588836
-28033.495077
-28040.463814
-28015.995109
-27987.651412
-27981.338923
-27998.713891
-27990.432657
-27982.838921
-27976.088933
-27955.557721
-27962.276459
-27983.432670
-28002.807634
-28019.682603
-28024.495094
-28008.307624
-28001.870136
-28002.120135
-27992.245153
-27986.495164
-27985.963915
-27997.026394
-27985.026417
-27953.713975
-27942.588995
-27973.213938
-27987.276413
-27979.901426
-27975.932683
-27959.713963
-27959.432714
-27938.151503
-27968.526447
-27970.963943
-27953.588975
-27934.182761
-27906.432812
-27916.432793
-27923.995279
-27933.245262
-27930.339018
-27932.339014
-27915.432795
-27899.651574
-27895.807832
-27886.964098
-27903.682817
-27911.495303
-27920.620286
-27924.370279
-27922.745282
-27925.214027
-27952.338977
-27961.495210
-27925.464027
-27914.057798
-27860.276647
-27828.776705
-27846.182923
-27860.151647
-27870.589128
-27853.682909
-27852.620411
-27850.026666
-27860.432897
-27868.401632
-27887.182847
-27918.682789
-27895.776582
-27832.214199
-27796.308015
-27794.276769
-27794.214269
-27833.026698
-27862.964142
-27881.401608
-27882.526606
-27853.464160
-27845.526674
-27863.370391
-27880.089111
-27878.995363
-27874.557871
-27877.307866
-27883.995353
-27881.089109
-27894.964083
-27948.213985
-27942.995244
-27894.182835
-27880.557860
-27912.901550
-27951.807728
-27953.432725
-27964.557704
-27960.088963
-27947.776485
-27919.932787
-27917.901541
-27944.338992
-27961.182711
-27981.213924
-27974.120187
-27968.963946
-27947.213987
-27939.214001
-27939.964000
-27962.120209
-27986.182665
-27981.182674
-27996.963895
-27989.526408
-27998.495142
-28005.338879
-28010.338870
-28005.963878
-27990.526406
-27982.057672
-28004.182631
-28037.620069
-28038.370068
-28036.838821
-28027.682588
-28024.307594
-28031.838830
-28030.901332
-28034.307576
-28031.838830
-28064.338770
-28064.651270
-28054.526288
-28040.370064
-28034.870075
-28044.432557
-28060.682527
-28096.682460
-28111.744933
-28112.151182
-28112.776181
-28129.463650
-28157.182349
-28151.776109
-28143.338624
-28148.182365
-28138.369883
-28091.338720
-28077.369996
-28077.213746
-28091.307470
-28128.494902
-28116.588674
-28088.744975
-28088.776225
-28108.119939
-28128.807401
-28147.744866
-28148.651114
-28147.463617
-28144.963621
-28115.244926
-28131.213647
-28152.838607
-28161.338591
-28157.838597
-28161.744840
-28155.682351
-28133.244893
-28119.276169
-28127.807403
-28155.463602
-28147.213617
-28132.401144
-28134.432391
-28136.588637
-28132.369894
-28135.213639
-28163.119838
-28175.088565
-28164.619835
-28134.401141
-28147.651116
-28163.369837
-28153.869855
-28160.838592
-28178.994808
-28173.901068
-28130.807397
-28100.276204
-28118.713670
-28152.182358
-28175.057316
-28151.494859
-28122.557413
-28079.619992
-28105.588694
-28146.901118
-28149.619863
-28137.338635
-28121.088665
-28123.494911
-28131.776146
-28122.026164
-28098.651207
-28108.619938
-28133.526142
-28128.338652
-28118.244921
-28101.526201
-28075.869999
-28081.401239
-28120.994915
-28113.963678
-28102.088700
-28100.838703
-28098.088708
-28112.494931
-28117.088673
-28128.119902
-28142.838625
-28165.182334
-28144.682372
-28135.588638
-28158.963595
-28154.151104
-28169.401076
-28169.338576
-28168.432328
-28152.119858
-28146.776118
-28150.401111
-28164.776085
-28183.838549
-28164.213586
-28151.463609
-28139.151132
-28144.651122
-28156.244850
-28162.557339
-28169.901075
-28158.432346
-28158.994845
-28157.838597
-28180.932305
-28164.307335
-28150.338611
-28161.526091
-28168.307328
-28159.807344
-28154.026104
-28156.369850
-28147.963616
-28157.526098
-28150.401111
-28132.151145
-28120.401167
-28117.932421
-28118.619920
-28103.432448
-28098.057458
-28097.807458
-28109.744936
-28088.526225
-28069.026261
-28081.026239
-28082.963736
-28100.588703
-28114.213678
-28125.244908
-28105.901193
-28094.401215
-28099.401205
-28101.432452
-28110.963684
-28105.057445
-28084.744982
-28045.901304
-28044.432557
-28058.901280
-28078.682494
-28085.776231
-28091.401220
-28093.432466
-28086.588729
-28090.369972
-28079.276243
-28077.651246
-28063.901271
-28031.182581
-28028.495086
-28008.307624
-28004.432631
-28001.213887
-28015.526360
-28013.338864
-28006.713877
-28012.807615
-28017.682606
-28023.151346
-28021.651349
-28028.901336
-28026.026341
-28020.370101
-27983.307670
-27973.276438
-28006.557627
-28017.245107
-28038.963817
-28037.026321
-28044.588807
-28029.838834
-28005.682628
-27974.026437
-27986.276414
-28010.088870
-28009.651371
-27995.370148
-27977.838930
-27973.276438
-27998.495142
-28011.870117
-28021.120100
-28028.807586
-28047.963800
-28054.620038
-28078.432494
-28088.588725
-28091.057471
-28075.807499
-28092.994967
-28110.244935
-28091.526220
-28107.588690
-28124.901158
-28148.088615
-28169.588576
-28161.119841
-28153.057356
-28150.651111
-28166.807331
-28187.401043
-28192.713533
-28191.807285
-28203.307263
-28206.026008
-28210.307250
-28228.338467
-28249.244678
-28285.213362
-28282.463367
-28260.088408
-28247.525932
-28263.150903
-28281.057120
-28304.057077
-28302.213331
-28255.494667
-28242.338441
-28241.213443
-28239.088447
-28235.932203
-28254.025920
-28270.275890
-28289.057105
-28303.838328
-28282.869616
-28281.994618
-28310.619565
-28320.182047
-28298.057088
-28274.307132
-28271.150888
-28278.057125
-28295.525843
-28294.588345
-28310.150816
-28311.588313
-28295.182094
-28288.838355
-28278.119625
-28294.275845
-28294.619595
-28307.588321
-28319.994548
-28309.150818
-28302.025831
-28312.994561
-28331.057027
-28354.119485
-28364.838215
-28360.119474
-28358.900726
-28355.619482
-28369.931955
-28380.588186
-28425.744352
-28467.338025
-28450.306807
-28410.806880
-28409.681882
-28438.463079
-28427.088100
-28418.650615
-28415.775621
-28387.931922
-28351.556989
-28319.213299
-28297.807089
-28252.650922
-28222.400978
-28180.119806
-28142.213626
-28104.432446
-28025.526342
-27941.682747
-27883.057855
-27845.932924
-27787.558032
-27713.120669
-27670.526998
-27634.183315
-27581.527162
-27519.402277
-27485.433590
-27459.933637
-27429.996192
-27357.215077
-27287.027706
-27232.621557
-27191.746632
-27185.215395
-27204.121610
-27261.746503
-27332.933872
-27403.558741
-27481.683597
-27604.527120
-27761.839329
-27879.276612
-28006.276377
-28123.682410
-28207.651005
-28229.119716
-28248.650930
-28317.463302
-28368.056959
-28392.588164
-28371.338203
-28388.681921
-28414.088124
-28425.400603
-28414.556873
-28391.150666
-28360.306973
-28319.838298
-28296.150842
-28286.400860
-28308.963318
-28321.432045
-28294.025846
-28261.057157
-28247.057182
-28257.994662
-28273.182134
-28291.650850
-28290.775852
-28287.275858
-28267.119645
-28259.807159
-28300.025835
-28318.807050
-28328.557032
-28344.400753
-28349.869493
-28328.400782
-28329.088281
-28330.713278
-28339.525762
-28353.900735
-28338.182014
-28333.557023
-28326.588286
-28335.150770
-28343.900754
-28326.400786
-28327.119535
-28349.119494
-28355.494482
-28336.869517
-28360.119474
-28379.713187
-28374.338197
-28355.525732
-28340.369510
-28331.432027
-28331.650776
-28333.619523
-28334.994520
-28343.244505
-28321.275795
-28321.088296
-28313.650809
-28295.775842
-28307.338321
-28327.369534
-28343.057005
-28351.806989
-28362.713219
-28347.119498
-28333.900772
-28339.213262
-28337.775765
-28354.525734
-28364.025716
-28370.619454
-28352.744487
-28337.775765
-28327.400784
-28315.119557
-28340.088261
-28340.025761
-28341.525758
-28342.994505
-28328.119533
-28317.775802
-28339.213262
-28337.338266
-28333.963272
-28362.306970
-28374.963196
-28367.713210
-28361.931970
-28376.400694
-28383.088181
-28358.400727
-28338.713263
-28324.463289
-28328.963281
-28331.213277
-28336.213268
-28329.025781
-28334.994520
-28333.682022
-28295.650843
-28281.650869
-28304.150827
-28340.713259
-28356.994479
-28344.619502
-28319.025800
-28308.025820
-28322.713293
-28337.525765
-28347.744496
-28339.869511
-28346.619499
-28334.807020
-28321.213295
-28317.525802
-28327.775783
-28346.057000
-28336.182018
-28336.025768
-28334.432021
-28341.932007
-28355.338232
-28351.400740
-28342.557006
-28356.088231
-28373.181949
-28354.931983
-28360.244473
-28367.494460
-28373.869448
-28376.744443
-28381.556934
-28384.713178
-28353.556986
-28341.182009
-28341.338258
-28355.056983
-28336.994516
-28309.713317
-28319.494549
-28314.775807
-28324.400790
-28321.275795
-28325.557037
-28345.182001
-28356.838230
-28341.525758
-28334.369521
-28352.525738
-28340.182010
-28303.775828
-28279.182123
-28280.432121
-28287.025859
-28282.713367
-28270.744639
-28291.494600
-28329.494530
-28338.838263
-28326.025787
-28298.869587
-28297.119590
-28306.713322
-28306.463323
-28312.338312
-28320.869546
-28330.963277
-28325.432038
-28329.369530
-28319.557049
-28303.900827
-28300.557084
-28307.338321
-28312.557061
-28290.244603
-28263.963401
-28265.807148
-28300.275834
-28306.525823
-28279.088373
-28262.494654
-28258.557161
-28258.807161
-28267.088395
-28299.494586
-28310.088316
-28301.838331
-28273.775883
-28235.807203
-28257.838413
-28294.369595
-28302.182081
-28275.088381
-28252.994672
-28221.869729
-28206.713507
-28195.526028
-28205.776009
-28249.838427
-28254.807168
-28247.869681
-28252.807172
-28255.088418
-28236.150953
-28228.838466
-28241.088444
-28258.807161
-28259.744659
-28221.213480
-28200.369769
-28208.557254
-28223.025977
-28225.307223
-28222.838477
-28202.963514
-28170.026075
-28173.151069
-28182.526052
-28193.088532
-28190.776036
-28189.901038
-28202.526015
-28179.494807
-28171.557322
-28165.119834
-28178.182310
-28178.026060
-28183.151051
-28175.463565
-28164.713585
-28162.994838
-28170.276074
-28172.151071
-28165.838583
-28172.401070
-28168.119828
-28169.151076
-28168.494828
-28176.869812
-28199.151021
-28193.276032
-28187.119793
-28182.557302
-28200.151019
-28199.182271
-28204.588511
-28241.494693
-28252.213423
-28242.588441
-28226.713470
-28231.994710
-28261.088407
-28285.994611
-28295.557093
-28291.963350
-28263.150903
-28228.619717
-28245.432185
-28257.900912
-28289.432104
-28306.744572
-28308.369569
-28297.775839
-28292.650848
-28318.182051
-28324.057040
-28326.807035
-28329.213281
-28341.463258
-28355.119483
-28349.119494
-28336.588267
-28339.932011
-28356.713230
-28353.150736
-28358.463227
-28339.463262
-28342.057007
-28352.806987
-28343.400754
-28346.775748
-28330.525778
-28319.338299
-28321.994544
-28351.775739
-28377.806941
-28371.088203
-28387.181924
-28397.588154
-28392.213164
-28350.181992
-28353.806985
-28381.900683
-28383.181931
-28369.869456
-28373.338199
-28400.713149
-28397.275655
-28376.775693
-28367.994459
-28379.369438
-28375.431945
-28383.181931
-28401.806897
-28396.869406
-28388.963170
-28377.556941
-28406.306888
-28421.088111
-28441.338074
-28432.056841
-28412.056878
-28427.056850
-28441.275574
-28451.744304
-28454.963048
-28457.650543
-28445.056817
-28419.650614
-28403.056894
-28402.994394
-28434.338086
-28420.400612
-28396.494406
-28388.213172
-28385.025678
-28385.556927
-28396.181907
-28397.994404
-28404.681891
-28426.775600
-28414.369373
-28409.869382
-28415.775621
-28419.900613
-28440.244326
-28437.275581
-28428.431847
-28403.588143
-28384.588178
-28379.744437
-28399.025652
-28415.369371
-28404.431892
-28397.744404
-28401.431897
-28403.025644
-28377.306942
-28395.525658
-28414.306873
-28431.963091
-28444.713067
-28462.181785
-28478.400505
-28477.556757
-28467.369275
-28428.931846
-28418.806865
-28417.525618
-28416.119370
-28413.400625
-28413.869374
-28438.744328
-28457.556794
-28444.400568
-28419.869363
-28408.213135
-28410.744380
-28414.931872
-28445.806815
-28467.994274
-28465.744278
-28451.306805
-28456.525545
-28455.650547
-28449.588058
-28454.619299
-28455.838047
-28440.713075
-28432.525590
-28429.025596
-28420.713112
-28446.931813
-28453.869300
-28440.025576
-28454.056800
-28436.338083
-28423.556856
-28406.150639
-28417.588117
-28445.056817
-28466.056778
-28446.025565
-28423.400607
-28437.338081
-28455.775547
-28463.400533
-28451.650554
-28442.181822
-28424.838104
-28425.619353
-28422.650608
-28431.619341
-28453.556801
-28401.588147
-28360.650723
-28374.588197
-28379.619438
-28376.525693
-28360.869472
-28368.681958
-28387.963172
-28392.181914
-28381.619434
-28367.775709
-28375.306946
-28387.431923
-28378.525690
-28347.900746
-28347.525747
-28361.400721
-28344.900752
-28333.650772
-28377.556941
-28376.963192
-28335.119520
-28319.588298
-28320.432047
-28332.932024
-28332.869524
-28337.494515
-28332.994524
-28338.182014
-28345.557000
-28315.150807
-28312.025812
-28321.275795
-28321.463295
-28296.775841
-28291.057101
-28281.119620
-28262.463404
-28260.369658
-28252.744672
-28259.713409
-28251.119675
-28229.057216
-28202.151015
-28197.463524
-28207.869755
-28214.744742
-28235.338454
-28238.994697
-28246.713433
-28230.244714
-28247.588432
-28261.432156
-28259.619659
-28256.150916
-28248.838429
-28253.588420
-28240.744694
-28230.963462
-28229.713465
-28235.807203
-28262.244654
-28262.963403
-28268.275893
-28276.025879
-28285.775861
-28277.244627
-28299.463336
-28324.744539
-28330.244529
-28326.713285
-28325.182038
-28341.463258
-28356.119481
-28377.681941
-28386.713174
-28402.556895
-28412.963126
-28381.275684
-28377.369442
-28407.650636
-28447.150563
-28427.681849
-28391.400666
-28395.400658
-28419.744363
-28442.150572
-28445.963065
-28466.400527
-28489.150485
-28496.837971
-28469.056772
-28475.838010
-28515.181687
-28520.994176
-28506.462953
-28509.994197
-28515.337937
-28497.337970
-28487.462988
-28475.275511
-28480.431751
-28480.994250
-28472.619266
-28483.962995
-28492.744229
-28494.181726
-28494.431725
-28510.962945
-28530.744158
-28547.587877
-28540.806640
-28523.462922
-28527.712914
-28526.650416
-28544.806632
-28577.744071
-28588.994051
-28544.369133
-28499.525466
-28487.869238
-28510.212946
-28536.369148
-28525.119169
-28507.806701
-28506.400453
-28511.775443
-28522.337924
-28530.837908
-28537.181646
-28547.369128
-28546.431629
-28507.806701
-28496.056722
-28525.994167
-28553.087867
-28583.869060
-28617.525248
-28633.837718
-28618.806496
-28616.868999
-28616.962749
-28613.150256
-28623.931486
-28632.025221
-28624.400235
-28590.244048
-28559.806605
-28537.181646
-28537.712895
-28525.806667
-28502.587960
-28456.619295
-28383.650680
-28328.963281
-28286.713359
-28262.838403
-28209.026003
-28136.463637
-28058.901280
-27992.307653
-27925.057777
-27869.120381
-27846.057923
-27797.870512
-27735.058129
-27676.276987
-27627.152078
-27591.870893
-27547.120976
-27491.652328
-27426.902448
-27378.246288
-27366.996309
-27393.090010
-27436.746180
-27505.152303
-27619.714592
-27739.433120
-27866.901635
-27993.026402
-28091.932469
-28161.526091
-28254.838418
-28362.994468
-28408.150635
-28453.588051
-28498.244218
-28542.306637
-28575.119076
-28607.681516
-28654.306430
-28673.462645
-28629.962725
-28589.056551
-28567.306591
-28550.462872
-28563.025349
-28554.994114
-28540.931639
-28514.212939
-28491.869230
-28483.869245
-28497.056721
-28497.400470
-28474.119263
-28461.556786
-28476.900508
-28489.306735
-28489.994234
-28467.556775
-28479.525503
-28504.150457
-28515.931686
-28501.525462
-28513.306691
-28540.275391
-28550.056623
-28529.119161
-28499.400466
-28506.306703
-28506.525453
-28508.494199
-28511.712943
-28534.150402
-28550.369122
-28524.775419
-28494.244226
-28470.400520
-28471.275518
-28458.306792
-28467.056776
-28488.244237
-28522.587923
-28515.837936
-28500.962963
-28516.556685
-28518.244181
-28521.962925
-28527.181665
-28529.837910
-28522.056674
-28499.337966
-28486.681740
-28482.587997
-28526.150417
-28530.806658
-28523.306672
-28492.994228
-28455.119298
-28469.775521
-28502.431711
-28530.681658
-28531.962906
-28521.369176
-28491.337981
-28503.994208
-28515.869186
-28521.119176
-28547.806627
-28567.619090
-28547.525377
-28509.056698
-28517.587933
-28523.369172
-28525.650418
-28509.462948
-28490.900482
-28491.181731
-28486.962989
-28488.587986
-28488.337987
-28506.337953
-28534.337902
-28539.806642
-28530.431659
-28516.056685
-28532.400405
-28544.400383
-28557.775358
-28553.275367
-28557.212859
-28542.087887
-28527.244165
-28543.806634
-28556.025362
-28560.587853
-28532.962904
-28503.400459
-28489.525484
-28494.775475
-28501.775462
-28510.337946
-28531.587907
-28539.369142
-28537.744145
-28515.244187
-28504.119208
-28515.056687
-28531.212907
-28550.056623
-28553.244117
-28555.025363
-28546.587879
-28538.181645
-28513.431690
-28512.806691
-28531.962906
-28507.806701
-28489.587984
-28470.150520
-28493.150478
-28520.056678
-28528.931662
-28525.150419
-28519.806679
-28515.275437
-28504.275457
-28517.994182
-28535.556649
-28545.525381
-28543.337885
-28535.775399
-28538.931643
-28539.306642
-28529.181661
-28528.056663
-28549.681623
-28539.994141
-28520.431677
-28496.087972
-28497.900469
-28509.681697
-28512.931691
-28545.306631
-28550.994121
-28533.900402
-28511.525444
-28512.650442
-28524.587920
-28520.369177
-28505.806704
-28486.119241
-28492.619229
-28474.900511
-28457.088044
-28447.400562
-28470.588019
-28486.806739
-28467.588025
-28447.963061
-28432.588090
-28437.556830
-28438.994328
-28450.463057
-28455.150548
-28460.119289
-28463.744282
-28436.088083
-28438.650578
-28449.463058
-28468.963022
-28472.869265
-28471.275518
-28473.838013
-28462.900534
-28424.681854
-28402.525645
-28418.556866
-28415.463121
-28424.369355
-28419.400614
-28410.838130
-28424.556855
-28413.556875
-28417.181868
-28426.806850
-28427.869348
-28428.119348
-28423.931856
-28428.494347
-28440.994324
-28465.619279
-28466.025528
-28449.494308
-28414.588123
-28405.025641
-28416.713119
-28441.025574
-28438.494329
-28401.588147
-28388.775671
-28382.119433
-28384.088179
-28366.150712
-28373.900698
-28389.744419
-28394.963159
-28380.650686
-28350.556991
-28353.681985
-28367.056961
-28385.588177
-28379.463188
-28375.681945
-28383.556930
-28374.244447
-28354.619484
-28346.775748
-28361.119472
-28345.869500
-28344.963252
-28328.369532
-28303.775828
-28311.400814
-28313.932059
-28317.838302
-28317.994551
-28338.088264
-28329.494530
-28327.400784
-28351.900739
-28358.213227
-28360.900722
-28358.869476
-28365.650713
-28346.244499
-28340.244510
-28350.431991
-28377.650691
-28397.900654
-28389.806919
-28382.869432
-28375.056946
-28370.588204
-28370.181955
-28400.775648
-28435.838084
-28456.525545
-28456.869295
-28451.931804
-28461.181787
-28456.900545
-28448.650560
-28440.713075
-28448.056811
-28458.494292
-28451.681804
-28448.838060
-28443.806819
-28464.744280
-28476.369259
-28482.400498
-28470.463020
-28465.088030
-28476.431759
-28481.181750
-28506.806703
-28522.837923
-28527.400414
-28516.369185
-28520.994176
-28536.650397
-28547.900377
-28576.962823
-28566.556592
-28541.556638
-28538.244144
-28562.744099
-28528.056663
-28521.744175
-28541.619138
-28538.431644
-28524.181670
-28513.119191
-28541.650388
-28557.931608
-28573.994078
-28574.119078
-28555.462863
-28553.087867
-28547.056628
-28566.525342
-28560.525353
-28563.712847
-28580.837816
-28572.150332
-28572.337831
-28570.119086
-28569.056588
-28556.244111
-28553.962865
-28551.494120
-28551.837869
-28542.869136
-28536.650397
-28535.869149
-28536.494148
-28553.994115
-28567.806590
-28579.150319
-28582.212813
-28581.806564
-28587.181554
-28582.869062
-28576.087825
-28568.306589
-28570.900334
-28571.087834
-28569.994086
-28544.369133
-28545.275381
-28553.337867
-28542.650386
-28534.306652
-28496.619221
-28495.806723
-28499.900465
-28512.681692
-28549.462874
-28575.556576
-28564.212846
-28533.431653
-28525.619168
-28534.619151
-28552.431618
-28546.962878
-28539.587892
-28549.494124
-28537.150396
-28525.681668
-28530.994158
-28555.587862
-28552.119119
-28540.744140
-28538.587894
-28530.837908
-28527.681664
-28530.056660
-28555.962862
-28570.087836
-28584.900308
-28560.650353
-28547.150378
-28557.150360
-28561.244102
-28558.931606
-28543.900384
-28550.650372
-28560.244104
-28555.400363
-28550.744121
-28567.556590
-28589.806549
-28556.681610
-28520.712927
-28498.150469
-28520.212928
-28534.056652
-28539.525392
-28550.962871
-28569.306587
-28552.212869
-28524.462920
-28527.056665
-28524.962919
-28534.619151
-28556.837860
-28557.869108
-28557.431609
-28539.619142
-28532.712905
-28520.619177
-28525.306668
-28519.087930
-28527.462914
-28533.962902
-28507.775451
-28505.962954
-28529.400411
-28551.212870
-28556.181611
-28540.994139
-28510.337946
-28504.869206
-28525.869167
-28533.525403
-28545.119132
-28548.806625
-28551.650370
-28532.025406
-28508.962949
-28490.369233
-28491.087982
-28500.931713
-28500.025465
-28477.463007
-28469.025522
-28497.119220
-28490.681732
-28482.087998
-28485.212992
-28485.900491
-28491.587981
-28482.275498
-28489.212985
-28484.400494
-28481.900499
-28493.994226
-28508.056700
-28489.119235
-28439.994326
-28433.400588
-28451.525555
-28470.306770
-28468.025524
-28453.931800
-28441.650573
-28431.119342
-28434.681836
-28438.369329
-28442.994320
-28432.400590
-28432.650590
-28417.119368
-28390.494417
-28390.525667
-28395.338159
-28421.494360
-28415.338122
-28400.150650
-28381.681934
-28375.369445
-28370.369455
-28379.369438
-28365.181964
-28330.369529
-28336.182018
-28324.463289
-28335.182020
-28349.619493
-28368.181959
-28387.775672
-28388.275672
-28378.275690
-28353.400736
-28368.525708
-28373.025700
-28373.150700
-28372.150701
-28366.869461
-28355.088233
-28340.900759
-28353.213236
-28371.244453
-28396.494406
-28388.338171
-28372.994450
-28366.463212
-28376.963192
-28394.619410
-28400.994398
-28429.306846
-28470.463020
-28497.837969
-28473.181765
-28450.056807
-28457.806793
-28489.431735
-28520.806677
-28517.025434
-28513.962939
-28497.650469
-28487.587988
-28500.275465
-28553.212867
-28568.650338
-28542.056637
-28524.244170
-28510.619195
-28538.869143
-28543.431635
-28536.900397
-28560.712853
-28586.306556
-28599.619031
-28586.275306
-28587.306554
-28606.525268
-28628.181478
-28616.494000
-28607.150267
-28621.868990
-28626.868981
-28616.337750
-28582.712812
-28610.619011
-28639.212708
-28619.337745
-28611.462759
-28597.556535
-28582.462813
-28582.744062
-28610.556511
-28621.868990
-28629.837725
-28613.587755
-28608.650264
-28626.618981
-28645.993945
-28665.650159
-28665.462659
-28649.306439
-28638.337710
-28614.650253
-28590.712798
-28585.994056
-28597.056536
-28593.119043
-28613.337756
-28607.369017
-28606.931518
-28601.525278
-28617.118999
-28641.493954
-28652.056434
-28637.275211
-28609.181513
-28618.025247
-28654.962679
-28685.900122
-28710.900075
-28726.681296
-28727.806294
-28727.650044
-28748.118757
-28748.962505
-28751.337501
-28737.087527
-28714.962568
-28685.306373
-28659.525170
-28638.618959
-28603.962773
-28588.962801
-28564.056597
-28529.775410
-28467.713025
-28409.463132
-28376.525693
-28324.088290
-28273.432134
-28214.932242
-28187.151043
-28122.119913
-28049.495048
-28009.620121
-27983.182670
-27956.557719
-27899.089075
-27865.932887
-27830.057953
-27760.870581
-27673.808242
-27600.245878
-27569.402185
-27554.339712
-27560.277201
-27587.995900
-27654.777027
-27717.901910
-27808.401743
-27936.214007
-28068.495012
-28196.838525
-28296.650841
-28393.869411
-28450.806806
-28513.306691
-28587.806553
-28657.462674
-28704.556337
-28723.587552
-28739.525023
-28754.399995
-28778.587450
-28785.306188
-28767.118722
-28731.993786
-28710.837576
-28713.087571
-28713.337571
-28698.337599
-28677.681387
-28677.806387
-28673.306395
-28668.493904
-28641.212704
-28636.837712
-28667.650155
-28689.150116
-28679.775133
-28650.962686
-28660.462669
-28682.962627
-28692.837609
-28692.931359
-28668.681403
-28662.837664
-28667.275156
-28700.243845
-28706.275084
-28704.743837
-28707.868831
-28681.681379
-28670.275150
-28651.837685
-28636.212713
-28638.275210
-28690.212614
-28707.337582
-28685.525122
-28672.556396
-28656.650176
-28659.743920
-28663.056414
-28684.681374
-28699.493847
-28686.275121
-28653.743931
-28647.775192
-28672.150147
-28700.931344
-28718.212562
-28699.493847
-28691.775111
-28683.900125
-28668.743903
-28672.556396
-28675.962640
-28692.868859
-28684.775124
-28675.400141
-28670.618900
-28676.431389
-28667.868905
-28657.837673
-28660.681418
-28676.431389
-28683.025127
-28650.493937
-28648.681440
-28656.618926
-28674.525143
-28692.618859
-28688.181367
-28670.900149
-28642.087703
-28638.900208
-28646.618944
-28669.493902
-28675.587641
-28663.400163
-28640.025206
-28621.837740
-28640.243956
-28647.587692
-28652.025184
-28661.400167
-28680.306382
-28664.150162
-28657.712674
-28663.931412
-28668.118904
-28674.118893
-28662.025166
-28643.368950
-28623.493987
-28616.306500
-28624.868984
-28642.368952
-28671.493898
-28657.368924
-28649.493939
-28642.368952
-28625.556483
-28625.150234
-28653.462682
-28673.275145
-28674.837642
-28684.243875
-28641.900203
-28622.587739
-28667.962655
-28681.650129
-28664.087662
-28639.306458
-28627.806479
-28614.494004
-28610.525261
-28606.181519
-28625.275234
-28629.587726
-28625.306484
-28617.243998
-28610.025262
-28611.931508
-28605.869020
-28628.212728
-28660.868918
-28660.962668
-28646.618944
-28643.181451
-28649.087690
-28660.368919
-28681.400130
-28657.275175
-28639.900207
-28645.337697
-28637.618961
-28622.118989
-28630.431474
-28643.837699
-28627.931479
-28621.181491
-28609.212763
-28597.619035
-28600.087780
-28617.181499
-28629.462726
-28630.743974
-28634.462717
-28630.650224
-28638.337710
-28647.587692
-28663.962662
-28659.306421
-28645.900196
-28635.118965
-28634.525217
-28627.150230
-28616.743999
-28631.181473
-28638.712709
-28626.431482
-28626.368982
-28621.775240
-28621.368991
-28601.806527
-28595.994038
-28603.931523
-28616.462750
-28611.400259
-28620.556492
-28623.087738
-28613.494005
-28617.618998
-28618.837746
-28619.587744
-28610.494011
-28575.337826
-28549.525374
-28546.337879
-28559.744105
-28546.244130
-28549.400374
-28540.619140
-28550.150372
-28552.087869
-28557.931608
-28567.244091
-28552.431618
-28513.556690
-28487.462988
-28512.994191
-28526.962915
-28540.556640
-28554.119115
-28557.494109
-28569.462837
-28553.869116
-28537.150396
-28508.962949
-28530.244159
-28536.525398
-28496.962971
-28459.244290
-28454.056800
-28496.244222
-28513.119191
-28514.369189
-28513.150441
-28509.619197
-28484.869243
-28465.806778
-28483.869245
-28492.962978
-28505.056706
-28488.244237
-28476.244259
-28455.463047
-28451.244305
-28446.150565
-28430.181844
-28461.369286
-28474.088013
-28453.556801
-28443.588069
-28458.744291
-28464.244281
-28468.338024
-28479.369253
-28479.681753
-28477.963006
-28466.650527
-28472.556766
-28487.119239
-28491.181731
-28500.337964
-28497.462970
-28495.869223
-28491.369231
-28500.494214
-28500.212965
-28507.931700
-28517.056684
-28491.744230
-28486.744240
-28499.900465
-28511.306694
-28506.150454
-28527.431664
-28548.744125
-28568.306589
-28552.712868
-28538.494144
-28548.244126
-28553.056617
-28557.025360
-28548.837875
-28547.056628
-28538.056645
-28547.150378
-28561.431602
-28566.306593
-28575.712825
-28577.306572
-28573.556579
-28552.744118
-28551.744120
-28569.119087
-28567.369091
-28582.369063
-28607.369017
-28612.837757
-28587.337804
-28587.869053
-28603.744023
-28616.743999
-28633.962718
-28633.806468
-28621.462741
-28603.400274
-28597.931534
-28584.212810
-28603.369024
-28625.493983
-28624.931484
-28610.275261
-28605.244021
-28616.650250
-28610.962760
-28616.931499
-28620.650242
-28639.025208
-28645.212697
-28639.181458
-28646.212695
-28655.681427
-28650.181438
-28632.118971
-28631.275223
-28613.025256
-28603.556524
-28596.400287
-28602.962775
-28632.306471
-28631.087723
-28621.775240
-28618.368996
-28625.181484
-28626.337732
-28629.337726
-28657.868923
-28676.400139
-28676.462639
-28653.962681
-28661.181417
-28664.025162
-28671.025149
-28667.962655
-28664.775161
-28666.618907
-28644.806448
-28629.431476
-28607.306517
-28611.306509
-28626.681481
-28624.087736
-28630.431474
-28629.806475
-28650.368937
-28642.525202
-28647.900192
-28654.743929
-28652.775183
-28638.587709
-28636.993962
-28648.306441
-28643.431450
-28658.525172
-28656.368926
-28655.993927
-28660.087669
-28641.837703
-28626.931481
-28631.837722
-28649.150190
-28628.712727
-28622.681488
-28612.587757
-28600.587779
-28611.400259
-28632.837720
-28653.993931
-28654.681429
-28661.962666
-28632.556470
-28625.306484
-28634.931466
-28638.618959
-28654.150180
-28657.931423
-28659.618920
-28645.400196
-28621.618990
-28612.306508
-28631.743972
-28652.525183
-28635.462715
-28619.712744
-28610.525261
-28631.806472
-28660.337669
-28661.650166
-28649.306439
-28652.868933
-28646.556444
-28623.743986
-28632.181471
-28643.087701
-28659.337671
-28656.587676
-28643.368950
-28642.806451
-28633.056469
-28609.556513
-28601.931527
-28637.618961
-28642.681451
-28629.525226
-28616.337750
-28609.150263
-28604.212773
-28613.494005
-28643.181451
-28651.900184
-28641.368954
-28618.587746
-28624.868984
-28636.212713
-28632.868970
-28634.431467
-28637.493961
-28645.337697
-28647.181443
-28637.650211
-28619.462744
-28627.556479
-28648.243941
-28649.993938
-28631.618972
-28602.650275
-28621.400241
-28647.275193
-28667.400156
-28661.275167
-28641.556454
-28603.494024
-28584.712809
-28613.650255
-28606.087769
-28587.900303
-28583.056562
-28587.244054
-28573.087830
-28554.150365
-28555.056613
-28564.931595
-28588.119052
-28579.869068
-28577.212822
-28564.462846
-28570.337835
-28573.212830
-28584.337809
-28603.806523
-28607.306517
-28590.056549
-28563.212848
-28567.619090
-28574.431578
-28579.087819
-28587.650303
-28577.556572
-28565.994093
-28545.244132
-28527.025415
-28509.712947
-28528.087913
-28540.244141
-28514.337939
-28486.462990
-28458.306792
-28457.994293
-28463.775532
-28481.744249
-28500.306715
-28511.775443
-28503.431709
-28482.244248
-28482.400498
-28478.463005
-28498.181718
-28509.931697
-28501.869212
-28516.712934
-28508.744199
-28468.088024
-28456.713045
-28474.338013
-28491.119232
-28491.494231
-28462.306785
-28464.181781
-28486.119241
-28473.619264
-28481.681749
-28488.025487
-28484.150494
-28464.056782
-28477.900506
-28489.931734
-28483.244246
-28509.150448
-28532.056656
-28545.025382
-28534.431651
-28512.431692
-28512.087943
-28530.712908
-28558.931606
-28570.462835
-28587.869053
-28594.056541
-28607.775266
-28615.400252
-28643.650200
-28657.806424
-28673.900144
-28676.025140
-28668.868903
-28678.306386
-28676.900138
-28697.681350
-28710.431326
-28709.025079
-28720.462558
-28732.681285
-28737.462526
-28733.243784
-28750.150003
-28740.150021
-28725.868798
-28729.525041
-28755.806242
-28770.243716
-28755.587493
-28759.743735
-28776.337455
-28790.806178
-28782.118694
-28786.587436
-28796.899917
-28797.368666
-28810.212392
-28825.024865
-28834.743597
-28815.649882
-28811.431140
-28796.243668
-28803.743654
-28808.681145
-28799.837411
-28793.337423
-28790.306179
-28799.868661
-28812.712387
-28837.462342
-28858.493553
-28866.056039
-28860.806048
-28831.618602
-28810.868641
-28789.556180
-28799.118662
-28807.712397
-28816.524880
-28817.743628
-28815.493632
-28819.774874
-28816.118631
-28838.962339
-28845.806076
-28847.837322
-28851.243566
-28863.493543
-28879.931013
-28897.649730
-28946.118391
-28986.587066
-28991.055808
-28953.243378
-28924.430931
-28924.930930
-28925.712179
-28909.618458
-28865.399790
-28841.556084
-28813.993635
-28763.181229
-28706.150084
-28679.150134
-28662.650165
-28615.369002
-28555.181613
-28491.712980
-28443.650569
-28403.369394
-28372.806950
-28340.307010
-28306.369573
-28248.025931
-28170.307324
-28127.338654
-28113.776179
-28074.401252
-28004.182631
-27964.338955
-27910.901554
-27840.964183
-27768.620567
-27718.151910
-27749.276852
-27792.308023
-27855.401656
-27928.432771
-28007.213876
-28120.776166
-28264.025901
-28407.900635
-28523.337922
-28596.337787
-28639.181458
-28697.743850
-28764.431227
-28836.993592
-28905.712215
-28943.212146
-28961.274613
-28956.243372
-28952.837128
-28957.462120
-28963.868358
-28944.837143
-28900.930974
-28871.024780
-28844.837328
-28843.524830
-28853.931061
-28875.337272
-28874.056024
-28859.181051
-28846.149826
-28834.181098
-28858.399803
-28863.837293
-28869.931032
-28868.524784
-28875.087272
-28882.899758
-28866.774787
-28845.462327
-28836.774843
-28874.649773
-28881.149761
-28874.774773
-28864.743541
-28852.337314
-28862.181046
-28870.212281
-28888.805997
-28908.087211
-28912.462203
-28876.868519
-28878.743515
-28885.149753
-28884.712254
-28905.712215
-28911.274705
-28925.430929
-28917.680943
-28899.899726
-28876.181020
-28877.962267
-28903.899719
-28904.180968
-28904.493468
-28883.243507
-28868.149785
-28867.399786
-28891.399742
-28904.962217
-28913.430951
-28902.212222
-28884.462255
-28898.493479
-28902.962221
-28907.837212
-28914.180950
-28913.087202
-28896.649732
-28885.806002
-28867.118537
-28868.681034
-28894.087237
-28884.993504
-28884.556005
-28863.931043
-28861.368547
-28874.243524
-28889.243496
-28902.524721
-28906.493464
-28906.212215
-28893.618488
-28891.837241
-28885.806002
-28894.368486
-28918.680942
-28907.712212
-28895.337235
-28877.337268
-28871.243529
-28873.649775
-28896.493482
-28899.837226
-28891.212242
-28887.399749
-28881.587260
-28906.555964
-28916.930945
-28921.024687
-28936.149659
-28946.180891
-28927.680925
-28898.993478
-28898.368479
-28897.962230
-28907.805962
-28912.212203
-28916.805945
-28912.524703
-28891.180992
-28874.743523
-28879.337264
-28907.462212
-28898.118479
-28884.962254
-28876.149770
-28876.181020
-28877.743517
-28869.306033
-28876.524769
-28875.181022
-28888.868497
-28878.524766
-28869.306033
-28874.306023
-28873.368525
-28881.556010
-28869.462282
-28857.681054
-28868.931033
-28868.462284
-28849.931069
-28856.837306
-28879.118515
-28863.243544
-28863.399794
-28856.056057
-28853.368562
-28870.274781
-28884.837254
-28874.368523
-28864.368542
-28863.556043
-28877.306018
-28873.087276
-28852.118564
-28855.462308
-28859.524801
-28859.462301
-28849.993568
-28840.868585
-28842.243583
-28848.743571
-28860.399799
-28855.024809
-28848.493571
-28831.962352
-28823.618617
-28846.993574
-28868.556034
-28879.087265
-28871.274779
-28874.087274
-28864.524792
-28850.337318
-28840.899835
-28835.024846
-28835.368595
-28846.681075
-28858.212303
-28842.243583
-28819.368625
-28804.837402
-28830.681104
-28854.806060
-28828.712358
-28813.274886
-28797.556165
-28803.431154
-28802.649906
-28809.087394
-28831.743602
-28855.899808
-28847.618573
-28807.556147
-28804.618652
-28799.431162
-28799.493662
-28801.274908
-28796.618667
-28784.743689
-28765.087475
-28756.399991
-28760.556234
-28775.462456
-28766.556223
-28755.524993
-28743.556265
-28736.337528
-28746.431260
-28759.274986
-28787.087435
-28801.024909
-28808.181146
-28767.118722
-28713.306321
-28709.337578
-28727.931294
-28741.462519
-28729.712541
-28722.806303
-28707.275082
-28695.493854
-28677.900136
-28691.806361
-28706.025084
-28700.993844
-28701.650093
-28690.025114
-28698.431348
-28706.743833
-28716.525065
-28716.275065
-28710.650076
-28702.025092
-28687.243869
-28710.712576
-28728.556293
-28721.337556
-28725.462549
-28739.587522
-28737.431276
-28699.243847
-28694.712605
-28704.181338
-28727.868794
-28739.962522
-28724.087551
-28702.462591
-28694.056357
-28711.837574
-28717.931312
-28733.056284
-28751.743750
-28759.899985
-28744.025014
-28737.212527
-28760.149984
-28778.868700
-28787.431184
-28770.462465
-28776.274955
-28776.587454
-28772.587461
-28768.368719
-28784.899939
-28809.462393
-28798.837413
-28788.493682
-28799.274912
-28803.399905
-28812.993637
-28846.556075
-28851.649815
-28857.587304
-28852.181064
-28822.837369
-28819.462375
-28828.212359
-28841.306084
-28851.337316
-28851.806065
-28858.212303
-28849.806069
-28866.024789
-28885.337253
-28890.962243
-28874.681023
-28843.056081
-28838.806089
-28841.493584
-28871.493529
-28881.681010
-28891.305992
-28902.774721
-28920.493438
-28904.899717
-28893.712238
-28895.493484
-28897.649730
-28924.930930
-28926.930926
-28904.149718
-28893.493488
-28887.274750
-28880.149763
-28903.680969
-28927.587175
-28906.868463
-28879.618514
-28840.462336
-28852.774813
-28878.431016
-28900.399725
-28901.649723
-28896.930982
-28880.243513
-28857.118555
-28868.056035
-28880.868511
-28895.399735
-28914.149700
-28913.868450
-28891.055993
-28879.399764
-28881.149761
-28864.306042
-28878.774765
-28878.524766
-28864.712291
-28848.087322
-28839.337338
-28845.431077
-28852.243564
-28869.212283
-28880.556012
-28902.962221
-28895.118485
-28870.899780
-28871.493529
-28891.868491
-28898.087230
-28869.243533
-28886.524751
-28883.649756
-28863.493543
-28845.774826
-28858.306053
-28868.056035
-28846.462325
-28856.399807
-28867.681036
-28880.681012
-28875.056022
-28881.306011
-28892.930989
-28894.680986
-28897.618480
-28877.774767
-28864.774791
-28866.618538
-28871.431029
-28848.712321
-28834.118598
-28835.431095
-28830.056105
-28853.524812
-28860.556049
-28860.524799
-28845.993576
-28840.306086
-28829.681106
-28814.431134
-28814.462384
-28818.649876
-28836.149844
-28840.462336
-28860.056050
-28867.431036
-28872.212277
-28863.712293
-28848.431071
-28850.618567
-28835.962344
-28825.306114
-28820.587373
-28821.774871
-28816.493630
-28833.337349
-28862.649795
-28825.212364
-28794.681171
-28792.024926
-28821.087372
-28840.993585
-28854.774810
-28862.181046
-28873.243525
-28868.743534
-28847.899822
-28859.524801
-28875.056022
-28883.024757
-28891.712241
-28891.962241
-28868.087285
-28854.306060
-28867.743536
-28888.368498
-28913.087202
-28881.181011
-28836.243594
-28813.618636
-28814.962383
-28826.993611
-28817.399879
-28826.524862
-28839.087339
-28865.399790
-28856.306057
-28838.649839
-28835.462345
-28838.618589
-28865.493540
-28861.212298
-28851.274816
-28840.149837
-28838.149840
-28834.243598
-28816.056131
-28825.462364
-28834.524847
-28817.368629
-28819.024876
-28843.774830
-28861.556047
-28859.243551
-28836.618593
-28816.931130
-28814.899883
-28791.149927
-28791.431177
-28803.024905
-28811.806139
-28812.837387
-28820.556123
-28822.149870
-28786.087437
-28777.931202
-28767.806220
-28769.587467
-28796.493667
-28801.337408
-28793.462423
-28753.649996
-28732.087536
-28786.899935
-28833.149850
-28796.931166
-28728.212543
-28737.243777
-28754.556245
-28756.306242
-28779.368699
-28772.243712
-28747.806257
-28755.306243
-28749.587504
-28722.962553
-28722.275054
-28738.556274
-28738.462525
-28683.337626
-28653.368932
-28640.493956
-28668.056405
-28689.212616
-28675.556391
-28668.368904
-28671.650148
-28663.337663
-28661.181417
-28681.993879
-28699.681346
-28737.618776
-28776.274955
-28755.806242
-28693.087608
-28638.306460
-28638.400209
-28666.650157
-28694.650105
-28695.181354
-28692.212610
-28696.337602
-28688.650117
-28673.306395
-28638.306460
-28615.306502
-28647.681442
-28671.025149
-28630.150225
-28596.494037
-28653.212682
-28659.025171
-28662.462665
-28695.837603
-28727.712544
-28756.056242
-28701.400093
-28622.087740
-28646.337695
-28681.900129
-28689.868864
-28719.337560
-28748.587506
-28775.837455
-28777.868702
-28778.993700
-28788.524932
-28799.618662
-28791.931176
-28801.774908
-28864.899791
-28883.681006
-28870.931030
-28892.712239
-28865.962289
-28771.431214
-28756.899990
-28814.024885
-28826.743611
-28851.243566
-28870.149781
-28858.868552
-28832.962350
-28854.931059
-28892.368490
-28891.774741
-28857.087305
-28843.587330
-28851.806065
-28840.337336
-28846.899824
-28905.524716
-28911.993454
-28921.337187
-28920.587188
-28926.837176
-28885.243503
-28871.399779
-28875.368522
-28888.055998
-28927.493425
-28881.087261
-28854.056061
-28827.649860
-28847.212324
-28898.274729
-28944.805893
-28964.618357
-28907.149713
-28880.712262
-28890.149744
-28910.274707
-28965.055856
-28962.962110
-28947.774638
-28938.118406
-28914.274700
-28885.993502
-28892.743489
-28891.930991
-28926.899676
-28911.274705
-28883.212257
-28905.805965
-28929.462172
-28934.743412
-28927.743425
-28953.930876
-29019.430755
-29034.243228
-29013.024517
-28989.712060
-28997.649546
-29022.743249
-29020.493253
-28948.524636
-28909.087209
-28905.805965
-28940.399651
-28919.118441
-28830.337355
-28792.431175
-28777.493702
-28750.556252
-28717.712563
-28654.337680
-28590.587798
-28562.619099
-28567.369091
-28549.681623
-28461.806786
-28318.275801
-28300.869583
-28328.150783
-28300.682083
-28224.932223
-28165.276084
-28153.557355
-28124.588659
-28025.995091
-27928.526521
-27875.995368
-27855.401656
-27858.776650
-27909.120307
-27960.026463
-28032.245079
-28146.151119
-28267.338395
-28357.025729
-28497.119220
-28619.681494
-28702.681341
-28750.868752
-28783.962440
-28881.649760
-28954.962124
-28998.087045
-29044.899458
-29036.180724
-28988.274563
-29011.993269
-29090.211875
-29112.805583
-29017.149510
-28926.962176
-28891.993491
-28876.306020
-28878.899765
-28897.087231
-28925.430929
-28945.149643
-28924.993430
-28926.868426
-28956.555872
-28959.993365
-28959.337116
-28987.368315
-28992.462055
-28949.430885
-28955.993373
-28923.993432
-28920.680938
-28940.024652
-28911.899704
-28902.462221
-28917.274694
-28941.024650
-28961.180863
-28988.649562
-28997.868295
-29010.337022
-28976.212085
-28970.055847
-28979.305829
-28943.337146
-28984.180820
-29008.712025
-29000.524540
-28964.837106
-28938.555905
-28938.118406
-28956.274622
-28991.743307
-28975.712086
-28948.649636
-28965.524605
-28966.962102
-28962.274611
-28991.180808
-29021.024502
-28993.618303
-28961.212113
-28965.712105
-28977.899582
-28973.899589
-28994.524551
-29016.087012
-29021.118252
-29009.118274
-28968.743349
-28939.430903
-28958.680868
-28966.024604
-28945.212142
-28942.462148
-28940.618401
-28925.118430
-28915.243448
-28903.743469
-28925.368429
-28953.274628
-28982.587073
-28959.680866
-28897.524731
-28916.118446
-28936.868408
-28956.805871
-28967.555851
-28978.837080
-28971.555844
-28928.212174
-28904.774717
-28928.024674
-28968.399600
-28992.305805
-28973.212091
-28943.680895
-28919.993439
-28904.305968
-28924.993430
-28930.180920
-28932.024667
-28942.899647
-28960.399614
-28977.149583
-29006.680779
-28984.649570
-28968.180850
-29002.212037
-28994.962051
-28926.774677
-28900.274726
-28936.962158
-28944.180894
-28953.930876
-28979.837079
-28965.305855
-28929.555921
-28919.993439
-28960.055865
-28961.368363
-28929.930921
-28920.962187
-28901.430973
-28898.524729
-28921.493436
-28945.087143
-28962.024611
-28960.649614
-28956.868371
-28940.712151
-28931.493418
-28924.649680
-28931.368418
-28951.712130
-28945.899641
-28926.212178
-28904.712217
-28931.837167
-28950.243383
-28952.649629
-28929.680921
-28905.930965
-28916.962195
-28908.868460
-28928.180924
-28946.149641
-28923.962182
-28925.149680
-28933.274665
-28922.368435
-28911.837204
-28923.180933
-28914.524699
-28933.555914
-28938.899654
-28887.024750
-28869.431033
-28880.899761
-28904.743467
-28902.368472
-28902.493471
-28921.805936
-28924.680930
-28916.180946
-28883.774756
-28855.618558
-28863.462294
-28898.024730
-28887.462249
-28880.993511
-28863.493543
-28832.431101
-28821.056122
-28830.712354
-28855.368558
-28850.149818
-28833.056100
-28807.462397
-28797.212416
-28807.993646
-28798.587413
-28817.993628
-28840.493586
-28851.306066
-28822.149870
-28812.743637
-28840.931085
-28840.024837
-28854.899809
-28872.806026
-28842.993581
-28835.649845
-28851.962315
-28802.149907
-28771.212464
-28785.774937
-28784.431190
-28779.431199
-28771.399964
-28748.618756
-28750.400002
-28786.837435
-28802.524906
-28823.962367
-28816.993629
-28779.993698
-28786.181186
-28778.181201
-28769.962466
-28776.306205
-28768.056220
-28750.087503
-28741.993768
-28754.368745
-28770.306216
-28776.649954
-28756.774991
-28780.337447
-28802.743656
-28788.712432
-28741.712518
-28738.900024
-28791.806176
-28807.524897
-28778.993700
-28734.868781
-28746.962509
-28751.087501
-28757.274990
-28782.743693
-28797.149916
-28788.993681
-28774.806207
-28769.431217
-28769.274968
-28821.618621
-28834.462347
-28790.993677
-28773.399960
-28765.681224
-28783.649941
-28758.899987
-28752.774998
-28802.806156
-28838.743589
-28824.181116
-28801.431158
-28809.931142
-28817.493628
-28831.899852
-28840.681086
-28865.649789
-28877.149768
-28847.337323
-28817.712378
-28815.962381
-28854.274811
-28862.087296
-28843.024831
-28829.524856
-28857.337305
-28874.556023
-28887.680999
-28879.212264
-28887.993498
-28902.430972
-28883.306007
-28887.368499
-28917.774693
-28918.212192
-28896.680982
-28910.805956
-28925.555929
-28928.055924
-28931.055919
-28908.649710
-28917.212194
-28959.837115
-28939.243404
-28893.462238
-28870.087281
-28903.618469
-28921.149687
-28940.337151
-28957.055871
-28971.743343
-28964.493357
-28928.305924
-28933.993413
-28931.649668
-28946.774640
-28965.243355
-28954.462125
-28934.993411
-28924.774680
-28909.337209
-28927.368425
-28959.555866
-28941.743399
-28929.399672
-28941.430899
-28944.555894
-28935.868410
-28958.212118
-28973.493340
-28958.430868
-28949.899634
-28956.805871
-28936.555908
-28910.712206
-28906.837213
-28927.962174
-28945.680892
-28924.493431
-28902.837221
-28912.274703
-28919.930939
-28942.305898
-28961.618362
-28941.430899
-28916.493446
-28923.243433
-28946.930889
-28925.712179
-28931.962167
-28952.430879
-28975.930836
-28956.962121
-28920.649688
-28931.149668
-28944.399644
-28957.493370
-28951.649631
-28930.805919
-28917.618443
-28924.774680
-28947.212139
-28952.837128
-28944.399644
-28914.524699
-28926.180928
-28924.212181
-28902.055972
-28899.024728
-28902.493471
-28933.743414
-28946.087141
-28970.337096
-28973.837090
-28957.274620
-28938.305905
-28925.993428
-28942.899647
-28955.368374
-28940.993400
-28901.555973
-28899.024728
-28890.493494
-28909.555958
-28920.899687
-28899.743476
-28906.274714
-28918.962191
-28919.430940
-28911.962204
-28927.337176
-28930.837169
-28939.399653
-28954.712125
-28948.837136
-28917.993443
-28907.680962
-28931.618418
-28899.087228
-28889.962245
-28915.555947
-28918.212192
-28918.493442
-28898.305979
-28920.524688
-28921.274687
-28915.149698
-28936.805908
-28946.899639
-28915.337198
-28846.431075
-28843.087331
-28869.337283
-28903.337220
-28921.493436
-28920.149689
-28949.243385
-28960.680864
-28971.805843
-28946.305890
-28906.680964
-28892.118491
-28934.805912
-28952.524629
-28950.930882
-28963.337109
-28905.555966
-28891.087242
-28901.618473
-28918.399692
-28901.587223
-28883.618506
-28901.587223
-28912.212203
-28892.618490
-28866.587288
-28885.962252
-28929.243422
-28965.774604
-28930.524670
-28868.337285
-28828.087359
-28843.587330
-28885.587253
-28878.681015
-28873.774774
-28885.056004
-28865.587290
-28817.149879
-28831.868602
-28867.337286
-28864.118542
-28900.930974
-28916.930945
-28912.618453
-28896.587232
-28884.681004
-28901.368473
-28894.649736
-28877.181018
-28860.931048
-28879.118515
-28888.243498
-28888.618497
-28866.087289
-28894.837236
-28892.399740
-28851.993565
-28846.462325
-28823.899867
-28825.618613
-28841.212335
-28834.399847
-28862.774795
-28850.149818
-28787.087435
-28760.431234
-28823.931117
-28874.899772
-28848.993570
-28807.149898
-28790.587428
-28787.743683
-28784.243690
-28747.587508
-28732.712535
-28774.493708
-28804.743652
-28777.149953
-28773.774959
-28774.587458
-28753.118747
-28735.431280
-28737.056277
-28774.868707
-28790.774928
-28762.368730
-28765.149975
-28759.118736
-28750.775002
-28787.212434
-28800.774909
-28797.774915
-28756.649991
-28739.900022
-28715.837566
-28709.931327
-28723.243803
-28699.087597
-28688.493867
-28726.931296
-28733.618783
-28671.243899
-28639.900207
-28639.400208
-28671.837648
-28702.681341
-28666.118908
-28651.212686
-28664.337661
-28689.056366
-28690.743863
-28661.118917
-28648.775190
-28642.337702
-28650.493937
-28683.493876
-28700.525095
-28654.743929
-28634.493967
-28647.181443
-28671.431398
-28669.337652
-28699.275097
-28748.025007
-28742.400017
-28725.650048
-28687.150119
-28677.400137
-28728.337543
-28797.931165
-28811.806139
-28775.774956
-28762.149981
-28747.525008
-28706.556333
-28729.775041
-28780.024948
-28836.962342
-28833.243599
-28809.712393
-28794.306171
-28784.587439
-28809.524893
-28814.743634
-28800.149911
-28798.337414
-28807.899896
-28818.806126
-28858.868552
-28905.774715
-28938.774654
-28907.462212
-28856.462306
-28836.712343
-28842.524832
-28875.462271
-28898.805978
-28927.649675
-28902.899721
-28878.056017
-28906.837213
-28944.337144
-28935.399661
-28916.462196
-28933.118415
-28907.899711
-28917.180944
-28914.337200
-28890.399744
-28884.431005
-28908.493460
-28945.805891
-28943.149646
-28922.712184
-28869.618532
-28877.118518
-28931.087169
-28981.430826
-28967.274602
-28916.024696
-28909.462209
-28882.556008
-28897.649730
-28930.399670
-28950.618382
-28937.337157
-28955.524623
-28989.837060
-28943.055896
-28923.149683
-28904.680967
-28929.055922
-28984.399570
-28978.493331
-28959.618366
-28946.587140
-28937.930906
-28931.493418
-28916.149696
-28961.993361
-29037.211972
-29067.555666
-29043.961960
-29026.368243
-29017.962008
-29016.743260
-29060.274430
-29074.493154
-29040.086967
-29024.774495
-29003.837034
-28965.649605
-28957.649619
-28948.837136
-28947.993387
-28940.618401
-28879.618514
-28810.837391
-28748.118757
-28711.681324
-28672.337647
-28614.431504
-28567.369091
-28537.431646
-28473.306764
-28436.244333
-28421.338110
-28394.056911
-28332.213275
-28309.525817
-28258.400912
-28171.463572
-28133.869892
-28117.869921
-28065.307518
-27961.995209
-27899.182825
-27872.276625
-27901.714071
-27985.432666
-28058.713781
-28138.838632
-28266.369647
-28386.963174
-28456.056796
-28543.931634
-28672.587646
-28767.899970
-28850.837317
-28899.493477
-28916.337196
-28965.368355
-29010.212022
-29065.868170
-29077.086899
-29055.180689
-29022.024501
-29005.493281
-29022.993249
-28987.868314
-28955.337124
-28933.118415
-28925.962178
-28919.555940
-28938.180905
-28939.055904
-28939.368403
-28941.743399
-28954.680875
-28993.899553
-28959.243367
-28910.368457
-28948.243387
-28958.399618
-28949.930884
-28949.337135
-28958.555868
-28918.837191
-28916.743445
-28905.805965
-28929.993421
-28945.868391
-28947.087139
-28925.149680
-28887.930998
-28877.931017
-28892.180990
-28928.524673
-28957.493370
-28952.587129
-28921.087187
-28924.180931
-28949.368385
-28953.024628
-28952.399629
-28953.180878
-28996.712047
-29010.837021
-29006.712029
-28992.930804
-28966.743353
-28962.087111
-28966.712103
-28970.337096
-28957.712119
-28976.274585
-28971.524594
-28958.462118
-28982.462074
-29003.149535
-28996.555798
-28971.930843
-28959.587116
-28953.837127
-28966.243354
-28970.993345
-28979.493329
-28972.993341
-28940.899650
-28925.149680
-28940.962150
-28952.305879
-28938.087156
-28920.180939
-28916.212196
-28915.493447
-28946.524640
-28950.399633
-28982.805823
-28989.868310
-28938.368405
-28888.243498
-28896.087233
-28938.180905
-28936.993408
-28931.743417
-28930.118420
-28942.868397
-28929.993421
-28914.680949
-28888.368498
-28911.087206
-28951.243381
-28916.430946
-28901.930972
-28893.055989
-28895.774734
-28886.649751
-28907.118463
-28926.024678
-28913.555951
-28904.680967
-28891.118492
-28875.024772
-28890.899743
-28921.993435
-28933.930913
-28904.055969
-28908.149711
-28929.837171
-28918.368442
-28907.024713
-28929.024672
-28931.337168
-28905.555966
-28911.712204
-28920.274689
-28898.962228
-28890.462244
-28917.055945
-28909.930958
-28925.087180
-28911.805954
-28889.774745
-28899.587227
-28909.430959
-28920.680938
-28949.368385
-28958.555868
-28921.805936
-28899.274727
-28889.087246
-28909.243459
-28956.212122
-28972.555842
-28994.399552
-28979.024580
-28940.899650
-28916.368446
-28931.212168
-28915.180948
-28927.274676
-28935.180911
-28905.774715
-28907.680962
-28913.337201
-28932.868415
-28948.805886
-28921.774686
-28902.055972
-28900.024726
-28899.774726
-28906.212215
-28940.274652
-28933.024665
-28921.368437
-28931.993417
-28902.118472
-28878.118516
-28890.962243
-28898.118479
-28895.837234
-28919.180941
-28896.493482
-28877.181018
-28891.962241
-28899.462227
-28890.868493
-28852.681063
-28842.618582
-28837.868591
-28824.806115
-28820.118624
-28804.493652
-28803.243655
-28802.274907
-28777.149953
-28759.024987
-28774.462458
-28791.056177
-28820.118624
-28837.118592
-28839.649838
-28831.556102
-28794.056172
-28760.556234
-28770.087466
-28787.868683
-28801.118659
-28795.556169
-28790.681178
-28818.399877
-28777.774952
-28708.837579
-28729.306291
-28766.212473
-28782.524943
-28754.306245
-28720.150058
-28723.087553
-28722.275054
-28735.025031
-28761.524982
-28777.274953
-28735.712530
-28730.118790
-28758.274988
-28756.306242
-28759.493736
-28763.118729
-28776.806204
-28734.368782
-28688.900116
-28669.493902
-28682.493878
-28708.212580
-28700.025096
-28707.993831
-28714.493819
-28693.025108
-28663.837662
-28697.087601
-28724.650050
-28715.900066
-28708.462580
-28705.650085
-28706.900083
-28678.556385
-28670.150151
-28685.806372
-28691.150112
-28701.681342
-28699.337597
-28699.556346
-28710.931325
-28750.431252
-28751.056251
-28734.931281
-28727.775044
-28715.212567
-28739.056273
-28746.306260
-28742.650017
-28768.118720
-28807.899896
-28801.462408
-28804.556152
-28819.962374
-28830.024855
-28836.274844
-28826.587362
-28815.024883
-28818.681126
-28815.931131
-28814.056135
-28825.774863
-28840.181087
-28811.712389
-28797.368666
-28814.524884
-28829.493606
-28837.774841
-28846.274825
-28862.931045
-28879.274764
-28883.806006
-28869.993531
-28883.274757
-28887.430999
-28899.368477
-28895.243485
-28885.587253
-28892.055991
-28868.962283
-28843.618580
-28839.493588
-28900.462225
-28908.430960
-28874.899772
-28885.493503
-28888.524747
-28869.524782
-28876.337270
-28911.243455
-28910.962206
-28911.555955
-28896.649732
-28894.649736
-28905.524716
-28898.649729
-28907.743462
-28930.149670
-28961.368363
-28965.899604
-28922.055935
-28881.806010
-28883.899756
-28936.274659
-28942.868397
-28914.430949
-28886.118502
-28886.399751
-28901.899723
-28930.087170
-28936.024659
-28951.430881
-28973.649590
-28962.368361
-28932.149667
-28910.337207
-28938.837154
-28957.868369
-28950.274633
-28954.493375
-28953.993376
-28950.993382
-28905.524716
-28918.243442
-28936.087159
-28924.930930
-28939.805902
-28930.305920
-28902.712221
-28874.524773
-28907.899711
-28956.024623
-28961.930862
-28941.055900
-28922.930934
-28935.118411
-28960.118365
-28962.962110
-28936.899658
-28898.212229
-28870.681030
-28884.587254
-28902.337222
-28919.399690
-28937.680906
-28908.368461
-28890.055994
-28873.274775
-28869.274783
-28873.712275
-28905.962215
-28951.118382
-28966.274604
-28951.462131
-28915.024698
-28889.212246
-28896.618482
-28914.087200
-28927.024676
-28929.805921
-28916.524695
-28886.274751
-28883.962256
-28876.587269
-28896.930982
-28902.368472
-28901.993472
-28903.868469
-28914.212200
-28883.774756
-28861.462297
-28877.118518
-28916.399696
-28915.743447
-28860.149800
-28836.806093
-28860.649799
-28870.556030
-28893.587238
-28903.868469
-28910.118457
-28905.118467
-28904.555968
-28893.587238
-28891.212242
-28904.712217
-28893.149739
-28850.212318
-28875.556021
-28942.712147
-28965.837104
-28933.305914
-28905.618466
-28913.399701
-28923.962182
-28887.118500
-28900.430975
-28917.055945
-28919.930939
-28908.243461
-28880.399762
-28880.337262
-28881.212261
-28875.837271
-28878.837265
-28888.649747
-28870.899780
-28868.024785
-28874.243524
-28848.681071
-28861.337297
-28883.056007
-28908.899710
-28922.337185
-28917.837193
-28925.212179
-28895.024735
-28866.181039
-28861.681047
-28866.837287
-28869.712282
-28859.587301
-28852.181064
-28851.399816
-28866.306038
-28863.868543
-28879.149765
-28880.306012
-28860.087300
-28847.524823
-28854.524810
-28884.556005
-28905.618466
-28865.087291
-28866.743537
-28889.212246
-28894.274737
-28890.399744
-28896.493482
-28891.837241
-28886.056002
-28889.712245
-28880.868511
-28850.056068
-28857.837304
-28855.212309
-28845.868576
-28858.118553
-28872.368527
-28891.680991
-28900.149726
-28892.368490
-28866.056039
-28871.962278
-28890.399744
-28906.305964
-28885.868502
-28861.368547
-28880.649762
-28898.712228
-28903.743469
-28881.493510
-28873.243525
-28871.274779
-28881.931009
-28862.681045
-28831.337353
-28855.306059
-28859.087302
-28850.556067
-28868.743534
-28869.087283
-28850.931067
-28837.087342
-28837.118592
-28855.431058
-28847.556073
-28783.556191
-28772.962461
-28767.931220
-28775.868705
-28796.337418
-28803.806154
-28811.493640
-28791.149927
-28760.899983
-28738.806274
-28773.399960
-28771.962463
-28776.587454
-28790.087429
-28768.806218
-28751.650000
-28741.650019
-28744.056264
-28751.587500
-28769.868716
-28779.774948
-28760.993733
-28745.525011
-28735.243780
-28753.524997
-28747.118759
-28739.525023
-28704.275088
-28686.181371
-28688.775116
-28697.650100
-28709.962577
-28690.868862
-28647.150193
-28635.868964
-28668.650153
-28678.025136
-28680.337632
-28681.368880
-28656.150177
-28658.868922
-28639.618957
-28663.150164
-28674.087643
-28667.337656
-28681.462630
-28691.556361
-28698.025099
-28680.243882
-28667.243906
-28676.681389
-28702.493841
-28700.993844
-28666.962657
-28651.712685
-28640.712705
-28645.806446
-28654.618929
-28677.837637
-28732.712535
-28782.868692
-28775.931205
-28737.462526
-28738.306275
-28735.493780
-28749.931253
-28771.493713
-28780.399947
-28781.399945
-28780.993696
-28760.618734
-28768.587469
-28800.649910
-28827.618610
-28832.212351
-28833.462349
-28819.337375
-28814.087385
-28836.212344
-28856.618556
-28874.618523
-28887.149750
-28874.337273
-28909.243459
-28917.649693
-28900.618475
-28915.055948
-28930.399670
-28901.524723
-28867.243537
-28855.368558
-28846.306075
-28849.556069
-28865.462290
-28884.431005
-28885.931002
-28866.212288
-28880.649762
-28892.899739
-28919.337190
-28950.555883
-28968.087100
-28942.055898
-28890.649743
-28878.587266
-28884.462255
-28902.805971
-28908.868460
-28912.712203
-28920.430938
-28914.743449
-28884.524755
-28869.618532
-28905.149717
-28912.243453
-28914.055950
-28910.743456
-28883.368507
-28869.837282
-28877.431018
-28896.430983
-28903.837219
-28923.930932
-28916.243446
-28915.899697
-28919.055941
-28920.368438
-28931.837167
-28947.930887
-28966.493353
-28956.993371
-28951.618381
-28953.962126
-28975.587086
-29002.993286
-29010.587022
-29006.399529
-29005.868280
-29001.149539
-28997.368296
-29039.836968
-29057.211936
-29036.430724
-28978.993330
-28953.618377
-28961.055863
-28939.430903
-28902.587221
-28871.368529
-28840.806085
-28801.837407
-28756.056242
-28708.400080
-28648.275191
-28601.400278
-28559.744105
-28505.931704
-28454.681799
-28408.244385
-28360.431973
-28333.088274
-28313.338310
-28292.900848
-28272.525885
-28183.057301
-28118.807419
-28074.870001
-28028.307587
-27955.963970
-27905.870313
-27896.839080
-27927.089024
-27963.713956
-28014.620112
-28145.963619
-28304.869576
-28441.494323
-28551.900369
-28619.525244
-28671.056399
-28725.118799
-28810.118642
-28892.024741
-28964.212107
-28969.805847
-28988.587062
-29024.274496
-29030.430735
-29053.805692
-29045.336957
-29028.586988
-29009.524524
-28979.212080
-28934.212163
-28910.274707
-28902.962221
-28881.837260
-28881.899759
-28880.899761
-28861.087298
-28858.556053
-28876.118520
-28883.774756
-28902.493471
-28934.149663
-28922.243435
-28886.556001
-28854.399810
-28872.587277
-28888.180998
-28852.587314
-28865.493540
-28871.524779
-28859.899800
-28894.618486
-28933.930913
-28909.243459
-28864.368542
-28838.212340
-28825.337364
-28833.462349
-28830.931104
-28847.368573
-28872.806026
-28889.837245
-28876.274770
-28858.431053
-28873.306025
-28894.305987
-28906.180965
-28887.743499
-28882.181009
-28873.899774
-28869.556032
-28879.962263
-28886.774750
-28907.430962
-28881.899759
-28871.024780
-28867.618536
-28885.462253
-28910.055957
-28889.649745
-28886.618501
-28909.555958
-28922.337185
-28879.712264
-28895.087235
-28919.618440
-28918.087193
-28915.962197
-28900.118476
-28890.399744
-28877.743517
-28868.587284
-28855.743558
-28875.181022
-28895.087235
-28889.024746
-28878.743515
-28879.087265
-28902.587221
-28876.774769
-28873.493525
-28881.837260
-28877.337268
-28877.993517
-28883.149757
-28894.337236
-28897.243481
-28887.680999
-28892.243490
-28895.712234
-28877.087268
-28849.024820
-28830.337355
-28802.243657
-28823.024868
-28835.493595
-28832.431101
-28822.181120
-28821.181122
-28835.587345
-28849.431069
-28860.681049
-28844.149829
-28833.462349
-28838.431090
-28845.306077
-28856.962306
-28853.837311
-28868.274785
-28871.337279
-28877.118518
-28871.462279
-28862.212296
-28827.587360
-28791.649926
-28812.743637
-28850.274818
-28853.962311
-28824.618615
-28846.681075
-28860.899798
-28846.681075
-28847.181074
-28863.399794
-28879.212264
-28843.681080
-28836.712343
-28850.024818
-28865.962289
-28869.243533
-28869.899782
-28853.274812
-28844.149829
-28826.431112
-28818.868626
-28825.399864
-28830.337355
-28839.931087
-28837.837341
-28828.899857
-28835.087346
-28833.837348
-28837.149842
-28854.462310
-28866.899787
-28835.149846
-28841.868583
-28879.587264
-28899.930976
-28906.774714
-28878.399766
-28850.462318
-28854.181061
-28852.149814
-28823.681117
-28805.993650
-28791.462427
-28773.181210
-28779.493699
-28787.868683
-28796.149918
-28793.368673
-28808.868644
-28797.368666
-28781.462445
-28789.868680
-28800.493660
-28819.868624
-28790.837428
-28779.493699
-28769.587467
-28765.149975
-28773.306210
-28767.774970
-28759.149986
-28755.524993
-28791.556176
-28775.524956
-28717.493813
-28711.087575
-28700.681344
-28714.650069
-28748.275006
-28768.712469
-28756.618741
-28747.743757
-28737.556276
-28719.525059
-28721.025057
-28758.837487
-28752.399999
-28696.056353
-28700.587594
-28705.181336
-28672.806396
-28660.431419
-28685.868872
-28704.806337
-28695.525104
-28698.275099
-28685.243873
-28675.868890
-28681.712629
-28703.681339
-28732.118786
-28721.025057
-28694.306356
-28689.775114
-28707.556332
-28716.556315
-28728.962542
-28721.400056
-28695.775103
-28669.806401
-28656.587676
-28662.025166
-28654.212680
-28664.368911
-28664.962660
-28645.931445
-28638.056460
-28653.556431
-28677.462637
-28678.118886
-28685.931372
-28679.212634
-28674.337643
-28656.493926
-28649.150190
-28661.525167
-28674.400143
-28694.462606
-28705.462585
-28727.118795
-28730.462539
-28710.868825
-28682.118879
-28655.868927
-28656.587676
-28651.056436
-28660.400169
-28675.056392
-28703.431339
-28721.118807
-28727.993794
-28720.931307
-28712.931322
-28700.368845
-28699.462597
-28725.618798
-28762.118731
-28814.149885
-28811.806139
-28772.399962
-28751.212501
-28738.931274
-28720.087558
-28710.743826
-28738.243775
-28754.462495
-28760.556234
-28761.306232
-28749.462504
-28766.149973
-28796.899917
-28825.118614
-28844.399829
-28852.118564
-28841.993583
-28822.931118
-28803.212405
-28789.431180
-28831.931102
-28837.587341
-28839.899837
-28836.774843
-28822.587369
-28835.399845
-28853.056063
-28841.962333
-28827.743610
-28835.868595
-28843.993580
-28842.087333
-28841.399834
-28865.431040
-28883.056007
-28900.149726
-28895.743484
-28869.181033
-28879.337264
-28875.056022
-28876.306020
-28869.087283
-28869.556032
-28888.337248
-28885.368503
-28875.993520
-28862.181046
-28858.243553
-28849.493569
-28849.993568
-28838.118590
-28824.743615
-28846.493575
-28868.181035
-28886.587251
-28881.774760
-28888.930996
-28907.649712
-28921.743436
-28896.837232
-28880.774762
-28892.493490
-28902.149722
-28915.493447
-28891.993491
-28867.149787
-28846.368575
-28850.056068
-28867.462286
-28861.806047
-28867.399786
-28862.087296
-28865.056041
-28874.899772
-28902.618471
-28920.774688
-28924.805930
-28893.368488
-28861.056048
-28882.181009
-28885.774752
-28885.274753
-28883.462257
-28895.743484
-28893.649738
-28883.056007
-28894.024737
-28897.649730
-28909.274709
-28873.774774
-28841.181085
-28837.774841
-28869.618532
-28892.462240
-28882.493508
-28869.806032
-28859.712300
-28867.931035
-28853.962311
-28848.149822
-28867.368536
-28875.493521
-28891.430992
-28882.368509
-28879.087265
-28878.931015
-28881.181011
-28880.087263
-28880.556012
-28856.274807
-28829.493606
-28846.681075
-28865.181040
-28843.274831
-28824.337366
-28855.774808
-28890.462244
-28914.399699
-28906.087215
-28877.806017
-28876.524769
-28873.837274
-28888.587247
-28904.649717
-28908.837210
-28883.587256
-28866.181039
-28871.212279
-28876.399770
-28891.962241
-28881.118511
-28887.712249
-28909.368459
-28908.180961
-28893.930987
-28870.024781
-28874.587273
-28892.149741
-28909.430959
-28903.587219
-28908.555960
-28919.149691
-28900.462225
-28897.243481
-28893.118489
-28910.024707
-28922.712184
-28915.399698
-28891.555992
-28889.305996
-28877.337268
-28855.524808
-28852.431064
-28852.431064
-28870.431031
-28861.118548
-28876.899769
-28911.368455
-28913.305951
-28892.430990
-28873.243525
-28900.212226
-28914.462199
-28936.993408
-28936.618408
-28926.649677
-28914.087200
-28890.337244
-28874.962272
-28884.493505
-28942.774647
-28942.805897
-28893.524738
-28851.431066
-28853.649812
-28866.243538
-28866.681038
-28883.743506
-28905.430966
-28892.462240
-28862.149796
-28865.712289
-28890.180994
-28902.274722
-28913.649701
-28901.305974
-28918.555942
-28934.430912
-28922.930934
-28883.462257
-28879.743513
-28901.680973
-28884.899754
-28873.149776
-28872.274777
-28885.868502
-28892.212240
-28890.493494
-28899.430977
-28908.712210
-28895.587234
-28879.087265
-28903.180970
-28911.337205
-28934.274663
-28949.774634
-28941.149650
-28919.024691
-28898.087230
-28901.212224
-28913.180952
-28925.180929
-28910.774706
-28909.805958
-28889.462245
-28882.493508
-28904.337218
-28909.524708
-28917.462194
-28919.430940
-28915.899697
-28886.899750
-28896.993482
-28928.462173
-28934.055913
-28921.805936
-28921.087187
-28923.180933
-28898.743478
-28908.337211
-28922.337185
-28926.743427
-28914.243450
-28881.243511
-28899.212227
-28887.774749
-28881.837260
-28902.024722
-28907.399712
-28910.837206
-28932.712166
-28936.774658
-28920.774688
-28922.243435
-28935.524660
-28945.774641
-28942.868397
-28916.212196
-28896.149733
-28876.931019
-28858.681052
-28861.056048
-28902.618471
-28892.368490
-28856.524806
-28827.618610
-28820.337373
-28841.649834
-28846.306075
-28882.274759
-28903.337220
-28890.180994
-28861.837297
-28851.649815
-28858.587303
-28857.649804
-28872.056028
-28860.743549
-28832.212351
-28810.681141
-28816.024881
-28813.743635
-28825.399864
-28834.337347
-28808.837394
-28811.806139
-28811.149890
-28777.149953
-28758.993737
-28780.618697
-28798.056164
-28816.712380
-28788.774932
-28741.275019
-28733.400034
-28729.618791
-28738.837524
-28741.681269
-28747.993757
-28751.650000
-28738.806274
-28737.837526
-28714.962568
-28720.431308
-28736.837528
-28735.587530
-28709.556328
-28692.775109
-28713.368821
-28713.400071
-28729.493791
-28742.150018
-28745.650011
-28727.556295
-28725.243799
-28730.681289
-28723.400052
-28752.149999
-28790.743678
-28799.618662
-28770.618715
-28733.243784
-28678.275136
-28691.087612
-28737.181277
-28728.337543
-28718.400062
-28737.025027
-28756.868740
-28765.556224
-28786.931185
-28816.212381
-28828.837358
-28830.024855
-28815.774882
-28824.056116
-28839.931087
-28843.306081
-28858.118553
-28869.368533
-28885.337253
-28883.024757
-28860.149800
-28869.681032
-28898.212229
-28888.868497
-28868.868534
-28872.618527
-28875.837271
-28873.993524
-28868.087285
-28886.243501
-28909.212209
-28931.055919
-28923.868432
-28922.555934
-28948.899636
-28964.837106
-28959.587116
-28924.524681
-28925.055930
-28938.649655
-28944.430894
-28926.868426
-28936.337159
-28962.524610
-28976.743334
-28970.118346
-28953.962126
-28960.462114
-28977.118334
-28981.305826
-28972.274592
-28983.930821
-28976.462085
-28960.243365
-28989.180811
-28990.649559
-29007.899527
-29017.430759
-29018.618257
-29009.587024
-28982.118324
-28965.493355
-28946.680890
-28973.368340
-28983.368322
-28972.399592
-28980.805827
-28985.430818
-28990.399559
-28980.868327
-28998.368294
-29018.649507
-29031.524483
-29038.961969
-29044.493209
-29066.493168
-29089.743125
-29105.555596
-29085.743133
-29078.711896
-29084.899384
-29089.743125
-29083.336887
-29070.430661
-29055.805688
-29004.930782
-28981.868325
-28984.055821
-28955.180874
-28903.243470
-28868.806034
-28834.399847
-28829.024857
-28791.431177
-28720.993807
-28667.525156
-28623.712737
-28581.869064
-28533.869153
-28478.244255
-28428.650597
-28382.619432
-28342.682006
-28287.307108
-28250.307176
-28200.182269
-28153.619855
-28102.401200
-28033.776327
-27992.651403
-27962.307709
-27965.807702
-27988.463910
-28042.182561
-28111.182434
-28196.369776
-28317.119553
-28436.150583
-28561.119102
-28660.462669
-28750.243753
-28794.212421
-28843.993580
-28906.930963
-28953.399627
-29011.837019
-29031.493233
-29050.555698
-29069.649413
-29066.243169
-29073.461906
-29085.274384
-29102.399352
-29095.555615
-29073.243156
-29024.618246
-29005.149532
-29000.149541
-28987.805814
-28986.462066
-28994.555801
-29005.087032
-28975.868336
-28954.680875
-28945.430892
-28962.587110
-28953.743377
-28940.555901
-28923.305933
-28920.962187
-28931.743417
-28935.055911
-28963.899608
-28981.118326
-28988.649562
-28971.993343
-28951.618381
-28958.305868
-28950.962132
-28965.118356
-28980.930826
-28996.149548
-28997.805795
-28970.587096
-28939.149654
-28945.055893
-28957.837119
-28967.180852
-28956.399622
-28934.462162
-28954.493375
-28962.430861
-28954.868375
-28963.774608
-28983.524572
-28980.680827
-28937.493407
-28922.149685
-28936.618408
-28954.274626
-28966.555853
-28966.337103
-28963.243359
-28942.243398
-28935.774660
-28951.180881
-28971.899593
-28953.212128
-28940.993400
-28950.493383
-28936.930908
-28935.993410
-28932.274666
-28942.587147
-28962.868360
-28966.430853
-28962.055861
-28951.899630
-28949.930884
-28953.555877
-28988.805812
-28986.212067
-28974.087089
-28948.305887
-28925.805928
-28940.149652
-28951.618381
-28957.805869
-28950.368383
-28953.993376
-28934.305913
-28932.524666
-28937.180907
-28940.962150
-28948.743386
-28949.368385
-28951.087132
-28935.055911
-28944.399644
-28962.868360
-28955.930873
-28952.837128
-28951.555881
-28962.274611
-28958.212118
-28954.774625
-28941.430899
-28941.649649
-28938.399655
-28939.337153
-28954.430875
-28947.024639
-28941.024650
-28956.118372
-28978.868330
-28975.774586
-28975.524586
-28962.180861
-28935.274661
-28944.805893
-28954.962124
-28967.493351
-28956.899621
-28952.180880
-28957.212120
-28943.712145
-28932.587166
-28940.805901
-28938.493405
-28915.087198
-28897.149731
-28899.430977
-28916.180946
-28912.243453
-28914.368449
-28940.368401
-28936.712158
-28928.962173
-28914.587199
-28919.618440
-28935.493410
-28944.962143
-28949.993384
-28936.712158
-28932.305916
-28923.587182
-28912.180954
-28914.930948
-28944.930893
-28948.462136
-28927.868425
-28913.430951
-28911.618455
-28914.368449
-28899.524727
-28904.243468
-28925.337179
-28936.430909
-28933.680914
-28906.774714
-28909.837208
-28920.805938
-28922.524684
-28909.899708
-28900.930974
-28892.462240
-28883.368507
-28883.774756
-28889.118496
-28910.055957
-28887.212250
-28860.024800
-28847.056074
-28853.118563
-28847.212324
-28831.399853
-28850.181068
-28866.274788
-28874.712273
-28856.962306
-28857.868554
-28883.306007
-28893.243489
-28866.587288
-28850.931067
-28858.337303
-28856.524806
-28844.618578
-28831.587352
-28845.243577
-28846.556075
-28831.149853
-28836.431093
-28820.493623
-28815.931131
-28826.212362
-28862.431045
-28866.806037
-28866.993537
-28843.306081
-28800.181160
-28791.493677
-28807.306147
-28827.306110
-28829.524856
-28829.774856
-28812.087388
-28815.274883
-28813.181136
-28812.774887
-28824.712365
-28805.056151
-28781.431195
-28772.274962
-28779.931198
-28783.618691
-28784.306190
-28787.774933
-28792.118675
-28806.056150
-28788.368682
-28784.431190
-28791.149927
-28814.243634
-28821.243622
-28796.306168
-28807.806146
-28810.806141
-28784.149940
-28755.681243
-28760.149984
-28763.243729
-28761.087483
-28770.993714
-28758.118738
-28745.681261
-28733.431284
-28756.243742
-28784.524939
-28794.618671
-28785.618687
-28769.274968
-28778.649950
-28795.524919
-28822.806119
-28821.524871
-28816.118631
-28798.556163
-28801.899907
-28815.931131
-28816.837380
-28826.212362
-28828.868607
-28821.212372
-28817.243629
-28834.462347
-28867.618536
-28876.337270
-28865.587290
-28859.931050
-28859.493551
-28841.587334
-28850.962317
-28860.399799
-28859.212301
-28887.212250
-28903.555969
-28896.868482
-28873.681025
-28867.462286
-28864.462292
-28878.274766
-28881.274761
-28886.649751
-28896.118483
-28880.368512
-28896.274733
-28904.524718
-28919.712190
-28941.087150
-28951.180881
-28936.930908
-28927.118426
-28943.430896
-28949.399635
-28968.055850
-28964.149607
-28946.805890
-28952.337129
-28951.430881
-28933.305914
-28922.555934
-28947.243389
-28964.462107
-28947.305889
-28923.743432
-28925.305929
-28936.524659
-28961.055863
-28982.993323
-28993.305804
-29021.462002
-29007.055778
-28976.180835
-28966.868352
-28971.712094
-28973.524590
-28956.368372
-28950.555883
-28935.180911
-28924.274681
-28914.649699
-28935.149661
-28948.680886
-28946.493390
-28948.149637
-28935.680910
-28950.180883
-28939.305903
-28941.462149
-28964.868356
-28979.212080
-28977.712082
-28962.805860
-28964.399607
-28962.399611
-28978.993330
-28981.368326
-28970.087097
-28959.430866
-28944.868393
-28929.649671
-28931.243418
-28948.274637
-28937.555907
-28926.587177
-28917.805943
-28920.837188
-28925.462179
-28924.930930
-28946.305890
-28950.149633
-28948.055887
-28935.930910
-28941.087150
-28942.649647
-28951.837130
-28972.993341
-28975.430837
-28963.024610
-28939.274653
-28931.680917
-28926.087178
-28948.430887
-28974.180839
-28965.493355
-28961.524612
-28937.993406
-28920.180939
-28926.649677
-28935.493410
-28959.087117
-28977.805832
-28965.212106
-28931.118419
-28932.837165
-28946.274641
-28961.680862
-28964.899606
-28937.399657
-28907.993461
-28903.024720
-28920.555938
-28934.305913
-28952.868378
-28952.368379
-28952.712129
-28950.149633
-28929.618421
-28922.243435
-28942.743397
-28961.587112
-28949.743384
-28968.430850
-28953.555877
-28941.805899
-28955.024624
-28962.743360
-28970.024597
-28977.399583
-28984.899569
-28965.774604
-28959.555866
-28939.774653
-28935.524660
-28957.493370
-28957.555870
-28945.430892
-28926.680927
-28929.212172
-28944.680893
-28958.555868
-28974.774588
-28992.524555
-28978.180832
-28959.180867
-28967.337102
-28969.337098
-28976.087085
-28968.430850
-28949.462135
-28938.180905
-28920.805938
-28907.743462
-28911.118455
-28935.430911
-28921.618436
-28919.337190
-28932.149667
-28930.899669
-28922.149685
-28925.962178
-28939.087154
-28934.149663
-28941.587149
-28928.087174
-28932.430916
-28942.899647
-28949.212135
-28959.930865
-28953.024628
-28959.555866
-28944.774643
-28927.462175
-28904.868467
-28913.024702
-28947.024639
-28948.993385
-28932.399666
-28930.180920
-28942.305898
-28944.774643
-28969.430848
-28984.587070
-28977.493333
-28958.962117
-28944.087145
-28956.649621
-28979.524579
-28979.212080
-28963.024610
-28964.712106
-28958.962117
-28950.555883
-28943.868395
-28933.462164
-28953.993376
-28952.055880
-28932.462166
-28907.243463
-28902.993470
-28911.649704
-28904.462218
-28905.805965
-28923.618432
-28927.274676
-28909.087209
-28917.368444
-28955.587123
-28972.493342
-28962.524610
-28943.024647
-28953.149628
-28934.774662
-28928.805923
-28927.680925
-28940.868401
-28934.149663
-28913.055952
-28907.524712
-28900.962224
-28922.462185
-28932.618416
-28938.243405
-28938.055906
-28931.118419
-28929.430922
-28930.930919
-28940.212152
-28927.087176
-28931.649668
-28937.743406
-28937.399657
-28927.493425
-28912.430953
-28923.368433
-28946.149641
-28974.337089
-28960.837114
-28942.899647
-28924.243431
-28897.962230
-28887.649749
-28873.431025
-28891.337242
-28896.243483
-28891.930991
-28872.212277
-28865.962289
-28859.118552
-28862.649795
-28865.181040
-28850.056068
-28847.212324
-28830.681104
-28817.587378
-28814.306134
-28842.149833
-28856.649806
-28845.618577
-28852.712313
-28814.181135
-28793.649923
-28811.962389
-28832.024852
-28826.962361
-28826.743611
-28820.243623
-28808.962394
-28810.462391
-28794.118672
-28780.587447
-28771.368714
-28764.118727
-28759.087486
-28753.118747
-28738.150025
-28721.587556
-28734.337532
-28717.775063
-28702.650091
-28692.181360
-28711.587574
-28738.931274
-28740.462521
-28737.493776
-28729.212542
-28733.243784
-28728.775042
-28729.837540
-28744.681263
-28766.212473
-28774.024959
-28755.212494
-28740.306271
-28729.868790
-28725.150049
-28726.650046
-28739.775022
-28739.400023
-28715.993816
-28714.525069
-28704.775087
-28712.118823
-28725.306299
-28756.931240
-28782.181194
-28781.462445
-28770.399965
-28765.681224
-28796.243668
-28799.368662
-28787.618684
-28775.368706
-28802.743656
-28816.431130
-28815.962381
-28820.743622
-28815.899881
-28843.649830
-28855.743558
-28862.649795
-28873.743525
-28862.056046
-28856.431057
-28875.181022
-28901.337224
-28919.055941
-28923.212183
-28900.774725
-28895.805984
-28924.368431
-28938.899654
-28946.555890
-28945.618392
-28962.305861
-28957.618370
-28927.899674
-28916.305946
-28928.368424
-28936.837158
-28931.837167
-28928.712173
-28908.024711
-28908.618460
-28927.587175
-28946.305890
-28953.837127
-28971.680844
-28968.087100
-28943.149646
-28950.274633
-28958.805867
-28985.305818
-28991.149558
-28984.712069
-28962.993360
-28942.649647
-28941.243400
-28941.837149
-28946.899639
-28951.118382
-28945.212142
-28933.837163
-28947.774638
-28957.930869
-28947.899638
-28963.305859
-28975.368337
-28980.462077
-28966.899602
-28962.837110
-28973.149591
-28984.555820
-28981.055826
-28962.305861
-28980.462077
-28982.305824
-28978.399581
-28971.930843
-28989.462061
-29015.962012
-29030.086986
-29044.993208
-29050.336948
-29063.243174
-29077.180649
-29085.024384
-29093.368119
-29086.243132
-29065.961919
-29026.743242
-28998.805793
-28977.024584
-28974.024589
-28953.555877
-28916.149696
-28862.306046
-28811.181140
-28775.962455
-28742.931266
-28722.775053
-28671.275149
-28597.369035
-28548.462876
-28493.775477
-28448.650560
-28403.088144
-28380.150687
-28341.525758
-28309.963316
-28249.213429
-28200.963518
-28200.307269
-28177.276061
-28116.776173
-28037.807569
-27982.745171
-27941.651497
-27937.995254
-27971.963941
-28044.151307
-28140.588629
-28225.650972
-28345.307001
-28465.744278
-28587.650303
-28695.587604
-28774.993707
-28834.493597
-28910.712206
-28971.118345
-29019.118256
-29065.211921
-29094.493117
-29127.024307
-29134.399293
-29121.149317
-29098.180610
-29061.868177
-29054.493191
-29044.930708
-29052.274445
-29036.930723
-28999.524542
-28974.587088
-28958.055869
-28964.055858
-28978.149582
-28994.462051
-28999.462042
-29000.462040
-28980.743327
-28970.993345
-28976.587085
-28975.712086
-28992.962054
-28991.493307
-29000.743290
-29006.837029
-28990.993308
-28975.180837
-28989.055811
-29008.180776
-28990.680808
-28976.180835
-28956.743371
-28960.212115
-28970.149596
-28977.618333
-28998.618294
-29016.493261
-29005.587031
-28973.618340
-28988.462063
-28998.399544
-29005.805781
-29024.086997
-29017.212009
-28989.055811
-28982.212074
-28989.243311
-28999.805792
-29028.211989
-29018.930756
-29014.274515
-29006.399529
-28993.712053
-29012.930767
-29013.837016
-28998.868293
-29001.555788
-29009.493274
-29000.024541
-28992.493305
-28998.962043
-29011.524520
-29021.618251
-29018.274507
-29018.680757
-29006.118280
-29008.774525
-29009.868273
-29018.680757
-29039.711968
-29021.399502
-29014.274515
-29013.837016
-29022.274500
-29011.462020
-28996.180798
-29015.962012
-29042.555713
-29028.868238
-28998.524544
-29004.649533
-28991.524557
-28998.118295
-29007.462027
-29007.274528
-29011.587020
-29001.087039
-28991.962056
-28980.587077
-29003.430785
-29019.087006
-29004.930782
-28995.743299
-28990.399559
-28996.649547
-29000.493290
-29006.743279
-29016.743260
-29038.836969
-29031.868232
-29026.086993
-29031.711983
-29025.493244
-29032.743231
-29043.024462
-29052.430694
-29037.305722
-29018.305757
-29014.680764
-29032.086982
-29044.399459
-29029.243237
-29023.243248
-29027.149491
-29037.086973
-29021.430752
-28989.399561
-28991.493307
-29003.149535
-29012.180769
-28987.149565
-28977.524583
-28992.118306
-29017.305759
-29017.462009
-29009.212024
-29006.837029
-28996.430798
-28967.649601
-28939.712153
-28959.087117
-28980.712077
-28982.649573
-28971.180844
-28960.274615
-28979.930828
-28985.587068
-28977.524583
-28969.993347
-28974.305839
-28964.618357
-28964.805856
-28976.430835
-28975.680836
-28974.649588
-28976.055835
-28988.712062
-28975.180837
-28958.524618
-28934.680912
-28913.587201
-28923.524683
-28929.774671
-28935.055911
-28925.399679
-28924.462181
-28920.243439
-28920.243439
-28924.493431
-28929.618421
-28927.462175
-28910.055957
-28926.118428
-28936.837158
-28929.743421
-28914.493449
-28894.868486
-28888.680997
-28874.212274
-28875.899771
-28877.962267
-28897.837230
-28890.555993
-28874.024774
-28867.806036
-28867.243537
-28879.181014
-28870.743530
-28863.337294
-28861.774797
-28869.743532
-28852.962313
-28836.806093
-28836.212344
-28839.587338
-28864.118542
-28874.212274
-28873.556025
-28843.587330
-28809.993642
-28800.806159
-28811.431140
-28824.587365
-28814.274884
-28802.962405
-28793.993672
-28801.306158
-28812.337388
-28812.962387
-28826.743611
-28827.931109
-28824.556115
-28804.181153
-28798.118664
-28802.306157
-28802.993655
-28797.556165
-28803.993653
-28807.681147
-28800.149911
-28776.024955
-28763.962477
-28786.649935
-28800.399910
-28782.368693
-28771.524963
-28766.337473
-28775.024957
-28778.118701
-28785.212438
-28795.149920
-28806.056150
-28794.962420
-28782.306193
-28784.681189
-28800.743659
-28817.837378
-28813.649886
-28801.306158
-28790.649928
-28789.306181
-28787.274934
-28792.556175
-28808.087396
-28797.243666
-28799.962411
-28784.524939
-28784.024940
-28802.868655
-28808.837394
-28824.399866
-28835.274846
-28836.524843
-28825.118614
-28838.556090
-28847.274823
-28845.399827
-28844.806078
-28838.743589
-28851.993565
-28861.274798
-28861.243548
-28855.056059
-28863.712293
-28874.399773
-28876.149770
-28891.024743
-28886.431001
-28888.118498
-28892.024741
-28919.493440
-28933.743414
-28941.055900
-28931.024669
-28919.899689
-28927.149676
-28934.118413
-28969.649597
-28990.243309
-28976.337085
-28943.743395
-28924.680930
-28924.993430
-28939.868402
-28966.868352
-28963.493359
-28959.712116
-28956.368372
-28957.149620
-28958.243368
-28962.368361
-28979.149580
-28993.618303
-28994.680801
-28968.212100
-28968.149600
-28980.024578
-29001.055789
-29002.930786
-29000.743290
-28994.587051
-28974.712088
-28971.618344
-28980.712077
-28997.899545
-29012.712018
-29011.243270
-28987.493314
-28974.774588
-28985.555818
-28998.243294
-29017.618259
-29033.180730
-29048.368202
-29026.493242
-29005.462031
-29019.274506
-29032.149482
-29053.993191
-29050.993197
-29037.305722
-29017.274509
-29016.868260
-29013.524516
-29017.430759
-29034.149478
-29009.555774
-28999.368292
-29026.055743
-29045.868206
-29036.118225
-29038.211971
-29048.086952
-29059.961930
-29051.680696
-29013.368267
-29007.274528
-29028.180739
-29049.086951
-29041.868214
-29024.274496
-29028.024489
-29030.805734
-29045.993206
-29018.962006
-29018.680757
-29029.743236
-29023.993247
-29022.337000
-29017.055760
-29010.055773
-29006.868279
-29006.618279
-29011.399520
-29027.430741
-29026.868242
-29012.930767
-29023.305748
-29031.149484
-29041.086965
-29042.743212
-29055.336939
-29039.211969
-29013.493266
-28999.337042
-29009.837023
-29031.805732
-29024.524496
-29016.368261
-29003.430785
-29000.774540
-28998.430794
-28985.993317
-29008.368276
-29039.930717
-29037.711972
-29005.555781
-29008.430776
-29020.805753
-29019.743255
-29018.430757
-29027.961990
-29025.649494
-28996.243298
-28986.524566
-28985.899567
-28996.149548
-28993.743303
-28978.868330
-28981.805825
-28974.274589
-28985.305818
-28986.149567
-28990.149559
-28994.243302
-29011.930769
-29004.618283
-28984.305820
-28994.149552
-28998.962043
-29012.305769
-29005.430781
-29006.180780
-28997.399546
-28982.024574
-28963.649608
-28961.118363
-28974.462088
-28962.743360
-28957.587120
-28962.743360
-28981.962075
-28996.055799
-28998.430794
-29000.805790
-28996.774547
-29001.430789
-28972.180843
-28973.462090
-28974.680838
-28972.180843
-28985.680818
-28989.930810
-28992.930804
-28991.868306
