34
-6261.660306
-6216.191640
-6208.597904
-6229.847865
-6238.504099
-6239.629097
-6215.097892
-6229.722865
-6252.066574
-6255.097818
-6230.191614
-6223.004127
-6257.597813
-6306.660223
-6320.816447
-6297.785239
-6271.535288
-6268.972792
-6233.066609
-6179.004209
-6180.910455
-6225.222873
-6261.785306
-6248.879080
-6217.941637
-6236.441603
-6238.097849
-6219.691634
-6225.441623
-6227.410369
-6208.347904
-6206.504158
-6206.285408
-6224.535375
-6228.910366
-6227.535369
-6224.972874
-6211.347899
-6181.879203
-6169.316727
-6167.566730
-6175.160466
-6204.910411
-6191.379186
-6135.598039
-6126.285556
-6152.598007
-6159.879244
-6174.691717
-6190.660437
-6211.535399
-6214.629143
-6205.566660
-6218.566636
-6232.535360
-6211.535399
-6188.910440
-6189.472939
-6199.754170
-6191.316686
-6153.848005
-6127.691803
-6116.348074
-6122.348063
-6150.254262
-6149.754263
-6171.191723
-6165.160484
-6164.254236
-6162.035490
-6159.285495
-6184.566698
-6189.754189
-6222.379129
-6214.410393
-6174.035468
-6186.566695
-6211.379149
-6224.472875
-6193.941681
-6127.754303
-6129.973049
-6208.722904
-6228.847867
-6195.004179
-6157.316749
-6150.316762
-6214.129144
-6221.785380
-6222.816628
-6224.222875
-6174.066718
-6171.254223
-6195.879178
-6207.160407
-6223.254127
-6224.660374
-6225.972872
-6214.129144
-6174.410467
-6178.879209
-6193.504182
-6204.566661
-6159.004246
-6134.566791
-6142.910525
-6141.566778
-6164.722985
-6189.066690
-6179.535458
-6156.941749
-6159.004246
-6168.629228
-6174.535467
-6205.754159
-6226.035372
-6210.347901
-6186.629195
-6224.347875
-6221.941629
-6163.129238
-6158.597996
-6153.160506
-6205.379160
-6233.785357
-6162.535489
-6101.910601
-6092.691868
-6084.129384
-6106.160593
-6126.410556
-6141.004279
-6155.191753
-6163.691737
-6118.504320
-6102.566850
-6136.910536
-6181.285454
-6202.441665
-6209.004153
-6189.566689
-6114.691828
-6066.566916
-6113.785579
-6105.848094
-6074.785651
-6070.785659
-6130.660548
-6203.754163
-6217.691637
-6158.910496
-6115.629326
-6140.535530
-6146.316769
-6118.691820
-6116.848074
-6127.535554
-6141.223028
-6129.754300
-6097.566859
-6097.535609
-6107.316841
-6127.223054
-6130.973047
-6139.285532
-6138.785533
-6150.566761
-6122.316813
-6122.910562
-6133.941792
-6088.535626
-6107.160591
-6116.723074
-6125.879307
-6157.410499
-6166.754231
-6134.816790
-6121.879314
-6119.410569
-6095.441863
-6130.566798
-6140.441780
-6114.129329
-6121.316815
-6148.098016
-6143.754274
-6071.348158
-6020.598251
-6014.035764
-6046.910703
-6090.629372
-6152.441758
-6223.160377
-6228.035368
-6173.035470
-6105.629344
-6058.254432
-6060.848177
-6104.254347
-6136.223038
-6167.097981
-6187.972942
-6185.347947
-6168.316728
-6131.566796
-6130.004299
-6138.566783
-6109.223088
-6058.223182
-6088.754375
-6143.316775
-6161.910490
-6195.254179
-6196.316677
-6176.816713
-6175.910464
-6204.191662
-6250.754076
-6255.410318
-6256.004066
-6205.785409
-6158.785496
-6128.316802
-6124.035560
-6117.066823
-6143.348025
-6184.847948
-6166.441732
-6129.160551
-6138.160534
-6145.973020
-6120.816816
-6123.941810
-6152.941757
-6199.972920
-6205.441660
-6195.941677
-6215.097892
-6243.722839
-6267.441545
-6230.910363
-6212.472897
-6238.847848
-6197.379175
-6171.379223
-6163.441737
-6181.660454
-6210.441651
-6232.316610
-6258.535312
-6214.754143
-6238.691598
-6273.816533
-6258.035313
-6278.254025
-6254.379069
-6210.722900
-6239.441597
-6283.535266
-6265.660299
-6225.472873
-6223.910376
-6196.316677
-6158.879246
-6169.535476
-6207.754156
-6167.191731
-6133.285543
-6130.254299
-6176.722963
-6178.972959
-6146.629269
-6164.254236
-6244.566588
-6259.285310
-6148.316765
-6091.285621
-6095.379363
-6138.410534
-6193.066683
-6202.222916
-6189.691689
-6167.379230
-6192.660433
-6202.629165
-6203.285414
-6188.254192
-6172.941720
-6151.191760
-6149.754263
-6198.129173
-6232.472860
-6196.035427
-6164.066736
-6166.785481
-6159.097995
-6178.722959
-6205.754159
-6232.816609
-6235.910354
-6211.754148
-6196.441676
-6179.379208
-6202.097916
-6196.410427
-6206.035409
-6210.472901
-6218.316636
-6238.254099
-6172.816720
-6194.879179
-6221.660380
-6222.316629
-6249.941578
-6244.285338
-6220.535382
-6186.191695
-6203.972913
-6217.347888
-6214.941642
-6216.660389
-6196.910426
-6176.066714
-6174.066718
-6200.941668
-6213.629145
-6216.379140
-6169.441726
-6167.254230
-6207.691656
-6215.566641
-6235.941603
-6197.035425
-6162.285490
-6147.973016
-6184.847948
-6239.379097
-6280.254022
-6306.628973
-6262.566554
-6235.816604
-6208.754154
-6209.066653
-6203.097914
-6173.504219
-6158.191747
-6196.504176
-6217.066638
-6225.222873
-6191.004187
-6164.941735
-6160.222993
-6149.754263
-6163.191738
-6168.722978
-6161.441741
-6190.816687
-6170.097975
-6122.691813
-6118.504320
-6142.191777
-6206.660408
-6217.316638
-6197.785424
-6207.597906
-6192.285434
-6185.035448
-6224.472875
-6187.441693
-6183.129201
-6175.129216
-6166.004233
-6196.285427
-6192.379184
-6230.566613
-6218.379136
-6184.754198
-6211.347899
-6232.441610
-6162.910488
-6139.348032
-6197.879174
-6221.129131
-6222.941627
-6221.347880
-6215.910390
-6193.379182
-6175.410465
-6196.597926
-6212.160397
-6239.816596
-6256.660315
-6210.785400
-6180.629206
-6183.097951
-6215.535391
-6189.972938
-6145.410521
-6204.504162
-6274.504032
-6242.004092
-6227.660369
-6201.722917
-6159.066746
-6163.941737
-6206.629158
-6226.785370
-6202.066666
-6185.816696
-6186.004196
-6181.566704
-6160.410493
-6161.972990
-6193.160433
-6188.816691
-6156.285501
-6150.973010
-6200.879168
-6197.879174
-6178.785459
-6213.910394
-6199.535421
-6173.816718
-6183.035451
-6210.879150
-6232.910359
-6243.972839
-6270.316540
-6216.004140
-6144.441773
-6127.629304
-6148.285515
-6173.129220
-6174.129218
-6159.785494
-6159.629244
-6194.410430
-6201.879166
-6215.629141
-6267.566545
-6256.566565
-6198.691672
-6182.222953
-6184.097949
-6199.785420
-6209.316653
-6199.379171
-6233.316608
-6257.129064
-6250.535327
-6205.347910
-6160.722992
-6133.160543
-6124.535559
-6199.847920
-6215.660391
-6166.222982
-6191.660435
-6243.222840
-6240.379095
-6235.379105
-6252.910322
-6200.597919
-6166.941731
-6155.004253
-6168.691728
-6193.285432
-6223.972876
-6229.160366
-6205.535410
-6176.660463
-6148.535515
-6158.941746
-6197.004175
-6185.316697
-6171.285473
-6167.285480
-6147.598017
-6147.285517
-6148.285515
-6145.535521
-6199.785420
-6227.847868
-6183.129201
-6188.754191
-6238.129099
-6202.441665
-6169.629226
-6195.722928
-6193.066683
-6215.316642
-6233.972857
-6233.660358
-6280.316521
-6279.347773
-6237.941600
-6226.316621
-6189.379190
-6162.129240
-6219.691634
-6240.691595
-6239.004098
-6246.847833
-6261.316557
-6279.191524
-6280.910270
-6249.129079
-6236.129103
-6225.316623
-6241.691593
-6225.379123
-6224.472875
-6200.691669
-6232.254110
-6265.097800
-6260.472808
-6270.035290
-6237.129101
-6216.691639
-6222.941627
-6232.254110
-6253.879070
-6300.972733
-6308.597719
-6276.972778
-6296.878991
-6275.691530
-6233.254108
-6264.910300
-6286.285260
-6267.441545
-6262.535304
-6274.816532
-6272.691536
-6228.754117
-6181.504204
-6237.910350
-6279.472773
-6259.879059
-6239.660347
-6243.347840
-6259.410310
-6291.597751
-6291.691500
-6270.816539
-6286.254011
-6288.722756
-6289.597754
-6264.722800
-6276.722778
-6297.910239
-6286.097761
-6276.472779
-6282.316518
-6299.472736
-6258.222812
-6226.566621
-6230.629113
-6217.879137
-6205.472910
-6211.410399
-6220.879131
-6220.879131
-6234.566606
-6254.129070
-6273.347784
-6287.035259
-6294.035246
-6238.629099
-6216.285390
-6220.191633
-6189.941688
-6175.816715
-6194.379180
-6210.629150
-6206.004159
-6191.191686
-6193.972931
-6204.597911
-6214.441643
-6241.347843
-6234.254107
-6223.629126
-6245.004087
-6275.347781
-6274.441532
-6255.910317
-6244.972837
-6255.535317
-6296.347742
-6295.160244
-6290.316503
-6282.035268
-6261.254057
-6269.660291
-6281.285270
-6259.566560
-6291.691500
-6328.566432
-6363.347618
-6378.253841
-6363.066369
-6383.660081
-6392.566314
-6416.535020
-6428.378748
-6366.503862
-6344.222653
-6344.285153
-6324.347690
-6336.878917
-6300.660234
-6227.785369
-6237.629100
-6247.379082
-6248.472830
-6252.597823
-6232.535360
-6234.566606
-6259.879059
-6270.160290
-6268.972792
-6281.566519
-6296.941491
-6303.753978
-6289.660254
-6278.129026
-6279.910272
-6263.535302
-6264.597801
-6263.629052
-6285.285262
-6283.441516
-6256.410316
-6219.410384
-6234.972855
-6255.535317
-6228.754117
-6256.410316
-6316.660204
-6275.129031
-6240.222846
-6265.316549
-6319.316449
-6328.972682
-6329.566430
-6282.879017
-6223.566626
-6222.941627
-6232.597860
-6249.722828
-6267.566545
-6259.816559
-6256.066566
-6290.722752
-6307.785221
-6328.722682
-6328.222683
-6282.097768
-6258.410312
-6293.535247
-6326.503936
-6284.910263
-6279.754023
-6296.503992
-6293.285248
-6295.160244
-6294.285246
-6316.566455
-6339.597662
-6310.722715
-6308.910219
-6313.566460
-6277.191527
-6249.222829
-6222.035379
-6230.066614
-6263.441553
-6255.566567
-6228.097868
-6212.691646
-6244.347838
-6265.160299
-6250.691576
-6260.160309
-6278.879024
-6273.222785
-6270.285290
-6294.441495
-6309.441468
-6301.535232
-6309.628967
-6298.128989
-6288.097757
-6294.753995
-6306.128974
-6281.722769
-6277.410277
-6301.316483
-6280.879020
-6273.004035
-6280.535271
-6258.910311
-6256.285316
-6279.410273
-6311.035215
-6345.097652
-6334.410172
-6320.222698
-6315.785206
-6311.660214
-6305.222725
-6297.785239
-6257.129064
-6262.785304
-6252.441573
-6260.129059
-6287.504008
-6290.691502
-6244.129088
-6235.816604
-6249.254079
-6245.691585
-6278.222775
-6317.441453
-6339.910161
-6355.785132
-6329.003932
-6291.316501
-6276.941528
-6269.066542
-6285.816511
-6334.941421
-6335.691419
-6328.785182
-6332.785175
-6349.253894
-6340.597660
-6287.254009
-6226.285371
-6235.816604
-6246.472834
-6244.066588
-6257.816563
-6299.691486
-6320.691447
-6297.816489
-6274.035283
-6279.691523
-6300.003985
-6330.003930
-6307.753971
-6240.629095
-6215.597891
-6231.347862
-6268.379044
-6248.160331
-6261.629056
-6267.379045
-6252.285323
-6248.160331
-6257.691563
-6281.691519
-6307.160222
-6296.628991
-6231.035363
-6213.754144
-6206.941657
-6202.785415
-6220.785381
-6197.191675
-6214.035394
-6247.254083
-6269.004042
-6282.066518
-6323.878941
-6326.566436
-6236.504102
-6196.847926
-6225.097874
-6233.879107
-6135.660539
-6112.223082
-6146.504269
-6175.910464
-6197.504175
-6189.441689
-6172.754220
-6187.066694
-6200.004170
-6218.879135
-6223.972876
-6210.660400
-6212.597897
-6225.129123
-6229.379116
-6223.629126
-6198.191673
-6191.972935
-6188.847940
-6192.066685
-6203.441664
-6214.191644
-6199.847920
-6165.910483
-6164.285486
-6170.535474
-6199.066672
-6228.722867
-6209.941652
-6164.785485
-6197.379175
-6251.035326
-6255.972816
-6221.347880
-6193.847931
-6159.691744
-6129.066801
-6139.254282
-6153.379256
-6155.504252
-6151.535509
-6113.348080
-6135.129290
-6151.598009
-6178.566709
-6192.972933
-6191.254186
-6170.097975
-6179.691707
-6163.691737
-6129.160551
-6146.941768
-6187.597943
-6205.754159
-6175.066716
-6183.879200
-6200.285419
-6203.816663
-6173.972968
-6123.598061
-6150.910511
-6145.691770
-6120.441817
-6122.254314
-6159.222995
-6184.222949
-6175.191716
-6177.629211
-6193.222932
-6202.691665
-6174.629217
-6165.035484
-6220.316632
-6197.504175
-6174.222968
-6200.816668
-6184.129199
-6174.597967
-6184.472949
-6177.879211
-6179.754207
-6186.972944
-6193.754181
-6185.972946
-6165.566734
-6174.379217
-6179.410458
-6177.504211
-6213.254145
-6261.035307
-6246.066585
-6208.754154
-6205.847909
-6194.597930
-6218.472886
-6208.566654
-6181.941703
-6199.379171
-6205.754159
-6188.785441
-6170.441725
-6158.535497
-6175.347965
-6204.629161
-6204.566661
-6207.754156
-6218.504136
-6188.285442
-6169.785476
-6175.316715
-6178.222960
-6182.379202
-6202.379165
-6208.660404
-6183.379201
-6197.222925
-6215.191642
-6218.785385
-6210.472901
-6212.691646
-6209.816652
-6194.785430
-6161.504241
-6156.223001
-6170.597974
-6173.004220
-6190.379188
-6184.379199
-6186.004196
-6212.129147
-6203.785413
-6211.629148
-6217.472888
-6209.754152
-6207.504156
-6188.722941
-6195.722928
-6202.566665
-6193.504182
-6212.566647
-6216.129140
-6207.972905
-6237.660350
-6251.629074
-6203.035414
-6179.066709
-6174.847966
-6167.066731
-6186.222945
-6201.629167
-6221.504130
-6216.879139
-6209.972901
-6212.504147
-6219.566634
-6206.629158
-6222.191629
-6217.660387
-6219.379134
-6255.316568
-6254.097820
-6197.691674
-6178.847959
-6186.347945
-6162.285490
-6165.597983
-6177.785461
-6201.004168
-6209.910402
-6194.129181
-6187.410443
-6191.754185
-6204.410412
-6206.316658
-6212.129147
-6225.972872
-6228.941616
-6217.691637
-6209.066653
-6192.629184
-6194.066681
-6207.910405
-6195.785428
-6175.785465
-6171.816722
-6174.535467
-6174.597967
-6165.472984
-6166.597982
-6172.191721
-6178.535460
-6181.941703
-6175.910464
-6174.941716
-6193.160433
-6231.722861
-6236.660352
-6221.535380
-6202.410415
-6198.222923
-6192.191684
-6182.660452
-6203.222914
-6194.660430
-6164.972985
-6176.066714
-6221.504130
-6216.597889
-6215.847891
-6196.847926
-6163.597987
-6181.910453
-6205.472910
-6215.410391
-6182.879202
-6181.316704
-6222.629128
-6216.504139
-6224.504125
-6234.754106
-6233.504108
-6226.535371
-6218.504136
-6203.660413
-6203.629163
-6176.941712
-6158.191747
-6182.097953
-6174.972966
-6176.066714
-6187.847942
-6179.879207
-6184.879198
-6213.472895
-6227.785369
-6197.910424
-6195.441678
-6217.597887
-6203.660413
-6189.285440
-6192.441684
-6177.910461
-6181.816703
-6163.066738
-6166.285482
-6192.879183
-6175.660465
-6172.410471
-6178.785459
-6172.285471
-6172.597971
-6185.754196
-6187.191694
-6204.066662
-6226.660371
-6225.410373
-6215.785391
-6226.347871
-6238.035350
-6244.379088
-6229.222866
-6248.160331
-6286.472760
-6314.910208
-6261.722806
-6140.848029
-6058.598181
-6046.441954
-6115.410576
-6135.723039
-6144.223023
-6147.879266
-6144.598022
-6141.941777
-6165.285484
-6170.597974
-6176.222964
-6189.066690
-6175.816715
-6146.910518
-6164.410486
-6170.910474
-6175.504215
-6181.566704
-6170.347975
-6175.379215
-6196.754176
-6183.004201
-6160.722992
-6168.254229
-6212.535397
-6219.222884
-6205.097910
-6187.754193
-6172.472971
-6183.629200
-6184.191699
-6203.972913
-6185.316697
-6139.566782
-6147.441767
-6150.973010
-6119.504319
-6110.816835
-6118.879320
-6121.629315
-6141.004279
-6119.098069
-6067.004416
-6096.754361
-6120.066818
-6149.129264
-6140.348030
-6130.598048
-6148.098016
-6161.316741
-6141.691778
-6126.848055
-6154.191755
-6153.191756
-6159.254245
-6180.910455
-6185.754196
-6141.410528
-6113.973079
-6119.879318
-6119.066819
-6121.973064
-6127.285554
-6127.723053
-6123.254312
-6123.410561
-6119.535569
-6108.691839
-6135.754289
-6171.441723
-6204.597911
-6195.160429
-6187.410443
-6169.191727
-6143.598024
-6158.004247
-6188.097942
-6188.660441
-6182.722952
-6140.660530
-6101.816851
-6147.816766
-6168.004229
-6133.098044
-6116.441824
-6129.316800
-6144.598022
-6140.910529
-6139.660531
-6163.379238
-6177.597961
-6173.629219
-6195.691678
-6220.160383
-6226.379121
-6214.847892
-6190.347938
-6190.597937
-6189.191690
-6190.660437
-6177.004212
-6165.347984
-6188.816691
-6182.629202
-6146.441769
-6143.254275
-6152.566758
-6144.410523
-6180.816705
-6188.941690
-6143.941773
-6162.097990
-6197.785424
-6205.691659
-6206.535408
-6225.941622
-6234.972855
-6212.504147
-6182.504202
-6142.410526
-6132.410545
-6146.816768
-6168.004229
-6149.973012
-6125.723057
-6147.816766
-6161.660491
-6147.723016
-6140.066781
-6149.879262
-6157.785498
-6167.754229
-6168.879227
-6158.972996
-6171.504223
-6200.129170
-6220.316632
-6185.566697
-6168.847977
-6169.879226
-6176.347964
-6179.660457
-6175.222966
-6188.691691
-6170.879224
-6154.379254
-6175.972964
-6183.879200
-6161.441741
-6160.222993
-6156.223001
-6160.691743
-6166.660481
-6147.535517
-6151.723009
-6170.816724
-6168.629228
-6160.629243
-6163.222988
-6143.441774
-6135.191790
-6142.973025
-6131.691796
-6137.348036
-6138.473034
-6128.566802
-6113.348080
-6118.441821
-6152.691757
-6158.129247
-6167.972979
-6186.504195
-6184.847948
-6192.941683
-6169.410476
-6160.379243
-6165.347984
-6177.754211
-6180.222956
-6181.066705
-6197.691674
-6212.535397
-6219.847883
-6214.535393
-6226.316621
-6245.566586
-6264.379051
-6271.191538
-6292.066500
-6302.535230
-6309.253968
-6331.535177
-6338.441414
-6316.972704
-6263.629052
-6260.535308
-6292.004000
-6302.566480
-6309.816467
-6294.472745
-6287.691508
-6257.785313
-6213.722895
-6195.410428
-6208.097905
-6199.879170
-6198.035424
-6212.285397
-6232.941609
-6232.504110
-6232.160360
-6216.160390
-6181.941703
-6209.629152
-6231.410362
-6235.879104
-6233.691608
-6228.785367
-6241.379093
-6264.316551
-6248.754080
-6249.941578
-6224.629124
-6183.410451
-6161.472991
-6161.316741
-6136.723037
-6152.754257
-6168.816728
-6162.066740
-6152.723007
-6156.129251
-6181.004205
-6215.379141
-6227.972868
-6217.160388
-6215.097892
-6170.535474
-6166.566732
-6185.097947
-6188.066692
-6175.129216
-6164.691735
-6169.879226
-6192.910433
-6189.754189
-6151.598009
-6130.066799
-6134.160542
-6157.941748
-6203.660413
-6208.035405
-6197.816674
-6192.754183
-6194.254181
-6202.847915
-6175.097966
-6157.254249
-6170.566724
-6176.441713
-6162.254240
-6178.379210
-6199.254171
-6207.316656
-6211.879148
-6202.941664
-6213.629145
-6185.785446
-6151.066760
-6149.691763
-6150.504261
-6154.473004
-6160.129244
-6156.785500
-6179.754207
-6205.691659
-6199.972920
-6196.285427
-6210.660400
-6213.066646
-6209.972901
-6194.660430
-6195.566678
-6201.191668
-6229.441615
-6229.879115
-6219.691634
-6186.879194
-6153.066757
-6145.160521
-6149.754263
-6181.347954
-6180.972955
-6169.160477
-6190.254188
-6177.410462
-6157.816748
-6159.379245
-6186.129196
-6217.410388
-6212.222897
-6177.222962
-6183.347951
-6198.941672
-6164.222986
-6119.754318
-6119.848068
-6131.535546
-6102.098101
-6081.379389
-6094.504365
-6109.598087
-6158.879246
-6167.035481
-6178.754209
-6202.347916
-6200.722919
-6172.785470
-6145.316771
-6133.379293
-6129.379300
-6168.004229
-6164.285486
-6148.754265
-6161.129242
-6141.723028
-6130.066799
-6138.879283
-6144.160523
-6119.160569
-6134.348041
-6131.723046
-6105.473095
-6101.941851
-6131.848046
-6163.847987
-6171.472973
-6148.004266
-6140.410530
-6158.410497
-6155.504252
-6165.785483
-6173.472969
-6167.879229
-6146.691768
-6138.723033
-6138.254284
-6128.754302
-6120.785566
-6114.441828
-6118.379321
-6116.066825
-6134.816790
-6106.379343
-6092.691868
-6120.816816
-6163.035488
-6183.722950
-6165.129234
-6181.597954
-6194.066681
-6158.097997
-6146.066770
-6152.098008
-6185.660446
-6178.160460
-6140.848029
-6113.004331
-6114.473078
-6110.941834
-6099.566855
-6110.879335
-6123.379311
-6119.035569
-6109.191838
-6138.254284
-6135.598039
-6150.191762
-6154.973003
-6140.723029
-6160.816742
-6158.504247
-6148.473015
-6131.785546
-6165.160484
-6175.254216
-6133.660542
-6116.660574
-6122.473063
-6150.316762
-6145.723020
-6115.848075
-6128.973051
-6158.629246
-6132.035545
-6093.598116
-6074.723151
-6086.785629
-6129.473050
-6107.035592
-6105.348095
-6128.785551
-6118.191821
-6118.191821
-6107.941840
-6106.066843
-6091.441870
-6099.504356
-6108.191840
-6143.973023
-6124.035560
-6069.348161
-6077.160647
-6090.816872
-6101.848101
-6091.004371
-6115.254326
-6139.066782
-6142.129277
-6129.223051
-6089.660624
-6114.598078
-6155.566752
-6146.691768
-6135.191790
-6130.441798
-6149.191764
-6179.941707
-6116.191825
-6089.879373
-6126.441806
-6143.723024
-6148.285515
-6128.816801
-6122.348063
-6125.473058
-6122.941812
-6148.535515
-6169.691726
-6144.316773
-6149.816763
-6201.379167
-6218.129136
-6178.785459
-6133.348043
-6114.223078
-6130.379299
-6129.848050
-6125.441808
-6118.879320
-6127.160554
-6110.098086
-6096.316861
-6128.535552
-6148.441765
-6159.254245
-6170.691724
-6191.722935
-6196.004177
-6169.597976
-6179.972957
-6171.910472
-6161.129242
-6149.598013
-6131.441797
-6136.879287
-6130.941797
-6124.254310
-6144.848022
-6169.910475
-6189.097940
-6151.941759
-6098.223108
-6081.785638
-6106.191843
-6155.629252
-6199.097922
-6197.754174
-6166.066733
-6174.222968
-6160.504243
-6135.941788
-6161.504241
-6188.910440
-6196.410427
-6194.660430
-6180.472956
-6170.129225
-6156.160501
-6146.348019
-6160.754242
-6163.754237
-6176.660463
-6202.441665
-6200.285419
-6216.691639
-6246.004085
-6216.379140
-6191.597935
-6178.879209
-6177.441712
-6187.347943
-6226.347871
-6288.504006
-6263.066553
-6204.035412
-6197.504175
-6195.972927
-6202.222916
-6186.191695
-6170.160475
-6197.347925
-6175.316715
-6132.441795
-6132.348045
-6129.254301
-6130.691798
-6145.316771
-6174.847966
-6199.066672
-6201.535417
-6205.691659
-6200.879168
-6220.722882
-6272.379036
-6249.754078
-6236.129103
-6204.097912
-6185.316697
-6172.285471
-6183.972950
-6182.410452
-6196.379177
-6199.972920
-6195.910427
-6230.441614
-6222.191629
-6230.504114
-6242.535341
-6266.597797
-6263.816552
-6208.379154
-6153.879255
-6131.660546
-6160.285493
-6186.347945
-6199.660421
-6203.379164
-6223.691626
-6247.879081
-6240.004096
-6190.160438
-6194.691680
-6235.879104
-6248.597830
-6227.941618
-6186.847944
-6198.441673
-6209.660402
-6209.816652
-6240.316595
-6237.941600
-6264.597801
-6258.785311
-6275.254031
-6334.566421
-6317.066454
-6246.941583
-6196.847926
-6213.597895
-6216.347890
-6148.785515
-6154.191755
-6186.535445
-6182.222953
-6186.691694
-6195.160429
-6160.066744
-6179.191708
-6228.629117
-6254.285320
-6210.879150
-6157.722998
-6170.254225
-6200.785418
-6261.316557
-6302.160231
-6287.066509
-6240.347845
-6215.535391
-6177.941711
-6186.285445
-6202.066666
-6208.191655
-6205.379160
-6183.941700
-6201.129168
-6221.347880
-6233.316608
-6264.754050
-6313.753960
-6303.035230
-6263.816552
-6259.722810
-6300.660234
-6256.879065
-6232.535360
-6256.004066
-6241.972842
-6146.941768
-6118.691820
-6196.160427
-6226.097872
-6188.816691
-6197.629174
-6219.972883
-6168.566728
-6147.285517
-6159.191745
-6186.035446
-6203.535413
-6196.316677
-6238.285349
-6255.035318
-6253.441571
-6279.316523
-6296.785241
-6315.035207
-6327.191435
-6271.472788
-6231.879111
-6212.097898
-6201.472917
-6210.191651
-6251.754074
-6247.972831
-6235.785354
-6207.097907
-6221.722880
-6258.910311
-6267.566545
-6298.910237
-6246.097835
-6188.254192
-6224.629124
-6223.941626
-6270.785289
-6333.410173
-6303.910228
-6241.347843
-6251.535325
-6253.254071
-6224.785374
-6206.847907
-6195.660428
-6250.347827
-6264.566551
-6234.816606
-6254.097820
-6249.785328
-6249.597828
-6230.910363
-6207.066657
-6180.004207
-6170.410475
-6171.504223
-6155.098003
-6192.441684
-6209.441652
-6214.129144
-6207.097907
-6177.285462
-6190.191688
-6215.566641
-6244.316588
-6230.347864
-6269.316542
-6265.035300
-6215.972890
-6153.441756
-6146.941768
-6195.566678
-6225.566623
-6242.410342
-6243.285340
-6207.504156
-6184.222949
-6170.160475
-6203.629163
-6217.722887
-6232.129111
-6250.441577
-6314.878958
-6308.003970
-6236.910352
-6167.004231
-6129.910549
-6167.379230
-6163.879237
-6170.910474
-6187.754193
-6203.129164
-6232.441610
-6203.472913
-6221.816630
-6284.785263
-6329.472681
-6255.566567
-6217.816637
-6215.566641
-6181.035455
-6152.941757
-6190.160438
-6252.754072
-6233.504108
-6213.097896
-6246.035335
-6239.629097
-6161.879240
-6111.191834
-6137.816785
-6178.472960
-6203.285414
-6205.535410
-6231.722861
-6264.097801
-6289.754004
-6307.128972
-6273.097785
-6237.910350
-6204.285412
-6157.816748
-6212.066648
-6280.347771
-6255.910317
-6221.379130
-6193.097933
-6195.691678
-6230.129114
-6179.847957
-6176.941712
-6225.566623
-6267.629045
-6235.035355
-6251.066576
-6256.129066
-6254.347819
-6273.347784
-6348.691395
-6370.566355
-6316.910204
-6206.379158
-6188.816691
-6231.347862
-6220.629132
-6211.222899
-6216.285390
-6232.941609
-6235.254105
-6173.629219
-6173.035470
-6149.254264
-6114.973077
-6165.004235
-6208.160405
-6247.910331
-6302.753980
-6326.847686
-6324.753939
-6299.003987
-6253.566571
-6189.535439
-6148.691765
-6225.629123
-6262.785304
-6233.129109
-6178.504210
-6186.441695
-6184.629198
-6195.660428
-6158.910496
-6146.379269
-6170.754224
-6217.691637
-6271.410288
-6304.847726
-6305.878974
-6301.097733
-6177.097962
-6125.941807
-6133.254293
-6169.035477
-6197.066675
-6164.504235
-6135.941788
-6143.660524
-6159.379245
-6134.941790
-6145.066771
-6186.910444
-6229.629115
-6294.066496
-6265.660299
-6204.816661
-6127.098055
-6130.254299
-6209.441652
-6214.222894
-6162.629239
-6143.941773
-6172.722970
-6162.066740
-6233.660358
-6293.660247
-6332.066426
-6370.160105
-6358.628877
-6395.441309
-6336.035169
-6285.441512
-6314.816458
-6324.410190
-6334.128922
-6298.878987
-6298.441488
-6307.003972
-6351.378890
-6382.878832
-6371.910102
-6310.722715
-6252.097824
-6277.316527
-6352.441388
-6382.941332
-6354.410135
-6281.816519
-6249.222829
-6261.441556
-6257.879063
-6183.379201
-6139.691781
-6133.973042
-6168.941727
-6220.379132
-6235.347855
-6280.629021
-6296.097742
-6268.222794
-6328.878932
-6295.441494
-6242.972840
-6216.316640
-6210.004151
-6236.441603
-6240.566595
-6224.847874
-6246.754083
-6286.254011
-6195.191679
-6150.629261
-6201.254168
-6179.160458
-6196.660426
-6221.379130
-6234.722856
-6275.879030
-6278.972774
-6276.941528
-6305.628975
-6254.410319
-6206.347908
-6191.910435
-6239.316597
-6236.847852
-6183.879200
-6174.691717
-6190.816687
-6184.535448
-6220.379132
-6238.254099
-6238.035350
-6240.535345
-6209.285403
-6168.879227
-6190.191688
-6223.722876
-6177.941711
-6155.910501
-6196.441676
-6246.035335
-6272.379036
-6292.222749
-6262.410305
-6228.535367
-6194.410430
-6164.285486
-6200.566669
-6242.379092
-6164.441736
-6161.566741
-6209.941652
-6210.379151
-6226.285371
-6242.285342
-6272.222786
-6271.972787
-6289.660254
-6251.691574
-6204.347912
-6203.285414
-6207.754156
-6234.097857
-6240.847844
-6231.097862
-6254.691569
-6217.597887
-6208.722904
-6218.035387
-6210.379151
-6231.472862
-6243.191590
-6217.347888
-6173.597969
-6180.129207
-6230.472864
-6232.379110
-6193.097933
-6175.566715
-6168.285478
-6180.222956
-6231.004113
-6281.754019
-6236.972852
-6246.160335
-6302.222731
-6281.691519
-6232.254110
-6200.160420
-6195.566678
-6180.566706
-6187.785442
-6156.566750
-6160.879242
-6191.754185
-6197.160425
-6233.316608
-6235.722854
-6228.129118
-6217.847887
-6225.379123
-6232.347860
-6210.410401
-6214.722893
-6226.566621
-6239.910346
-6238.316599
-6237.004102
-6228.754117
-6192.504184
-6196.879176
-6222.472878
-6222.410378
-6225.129123
-6224.472875
-6193.347932
-6175.472965
-6173.941718
-6169.066727
-6182.254203
-6183.254201
-6190.691687
-6208.347904
-6251.629074
-6231.941611
-6199.066672
-6226.066622
-6238.691598
-6267.754045
-6263.566552
-6232.004111
-6207.410406
-6219.472884
-6242.847841
-6241.941592
-6212.660396
-6141.691778
-6147.035518
-6152.691757
-6159.410495
-6188.691691
-6174.347967
-6152.473008
-6203.691663
-6272.035287
-6215.941640
-6176.754213
-6207.097907
-6231.410362
-6227.066620
-6213.129146
-6189.410439
-6193.410432
-6186.660445
-6172.566721
-6184.722948
-6198.754172
-6167.754229
-6132.410545
-6130.504298
-6160.410493
-6212.691646
-6235.285355
-6210.629150
-6157.379249
-6141.973027
-6168.816728
-6205.910409
-6183.754200
-6166.816731
-6173.847968
-6184.035449
-6155.691752
-6130.598048
-6132.691794
-6148.035516
-6140.566780
-6126.285556
-6123.004312
-6133.535543
-6140.504280
-6137.160536
-6132.191795
-6127.816803
-6152.535508
-6165.847983
-6158.504247
-6176.191714
-6180.066707
-6160.504243
-6149.660513
-6141.723028
-6149.129264
-6217.597887
-6230.191614
-6156.723000
-6160.879242
-6168.504228
-6150.160512
-6142.535526
-6136.004288
-6141.191779
-6130.879298
-6159.316745
-6180.504206
-6190.660437
-6178.566709
-6163.941737
-6151.473010
-6176.972962
-6187.097944
-6161.941740
-6144.410523
-6105.723094
-6091.473120
-6076.348148
-6098.691857
-6159.285495
-6142.504276
-6131.816796
-6166.566732
-6190.254188
-6195.879178
-6179.972957
-6162.066740
-6146.785518
-6143.410524
-6160.660493
-6166.566732
-6174.097968
-6208.754154
-6211.972898
-6188.066692
-6177.379212
-6185.879196
-6184.722948
-6138.316784
-6109.285588
-6094.066866
-6118.754320
-6172.285471
-6180.660456
-6168.566728
-6127.535554
-6117.379323
-6144.473022
-6190.910437
-6184.941698
-6172.191721
-6198.441673
-6161.816740
-6093.816866
-6095.723113
-6164.910485
-6185.035448
-6166.629232
-6137.973034
-6127.598054
-6165.910483
-6184.816698
-6160.504243
-6147.973016
-6132.535545
-6122.941812
-6136.316788
-6157.035499
-6178.629209
-6166.066733
-6115.379326
-6135.098040
-6174.972966
-6170.410475
-6164.004236
-6129.785550
-6105.004345
-6128.629302
-6162.910488
-6148.910514
-6146.535519
-6148.691765
-6158.941746
-6206.097909
-6220.472882
-6199.441671
-6159.879244
-6144.535522
-6122.035564
-6126.473056
-6131.004297
-6136.598037
-6167.035481
-6189.410439
-6174.379217
-6145.629270
-6166.441732
-6169.660476
-6135.473039
-6100.535604
-6071.848157
-6069.629411
-6110.660585
-6135.535539
-6134.691791
-6136.785537
-6110.535585
-6108.785588
-6184.035449
-6265.316549
-6270.441540
-6254.754069
-6160.472993
-6108.191840
-6180.410456
-6238.347849
-6197.316675
-6177.379212
-6216.035390
-6226.816620
-6161.722991
-6140.441780
-6134.098042
-6094.941864
-6117.066823
-6133.941792
-6160.222993
-6199.254171
-6211.910398
-6181.785454
-6165.504234
-6168.941727
-6188.504191
-6194.691680
-6199.472921
-6224.566624
-6255.972816
-6248.347831
-6222.129129
-6196.285427
-6169.316727
-6129.379300
-6124.160560
-6135.098040
-6159.222995
-6188.066692
-6211.566649
-6209.129153
-6193.785431
-6208.722904
-6222.066629
-6237.254101
-6218.285386
-6225.097874
-6245.910335
-6223.629126
-6200.597919
-6223.097877
-6199.347921
-6158.410497
-6138.754283
-6128.910551
-6172.660470
-6218.035387
-6226.754120
-6193.035433
-6214.972892
-6253.660321
-6224.129125
-6192.347934
-6209.035403
-6220.004133
-6199.691670
-6200.285419
-6213.035396
-6196.629176
-6202.910415
-6214.722893
-6212.754146
-6203.660413
-6207.285406
-6209.441652
-6212.097898
-6223.347877
-6204.035412
-6221.379130
-6227.285369
-6197.597924
-6206.129159
-6202.816665
-6164.347986
-6152.785507
-6159.535495
-6170.191725
-6217.597887
-6250.629076
-6233.254108
-6198.660422
-6202.785415
-6214.160394
-6206.066659
-6193.222932
-6178.066710
-6188.910440
-6190.879187
-6171.129223
-6161.035492
-6166.566732
-6182.222953
-6178.285460
-6195.191679
-6224.441625
-6266.191548
-6271.566538
-6248.691580
-6235.347855
-6223.691626
-6230.691613
-6218.597886
-6234.972855
-6249.941578
-6240.535345
-6229.097866
-6207.285406
-6201.785417
-6170.660474
-6170.847974
-6177.629211
-6175.785465
-6195.879178
-6223.129127
-6248.660330
-6257.316564
-6267.816545
-6226.191621
-6197.722924
-6214.097894
-6210.379151
-6181.879203
-6148.973014
-6153.566756
-6166.379232
-6172.910470
-6171.410473
-6176.597963
-6185.347947
-6186.379195
-6195.879178
-6200.785418
-6178.285460
-6175.972964
-6200.879168
-6200.941668
-6221.879129
-6235.035355
-6202.316666
-6172.254221
-6186.347945
-6218.410386
-6232.129111
-6220.535382
-6200.972918
-6179.629208
-6164.972985
-6183.847950
-6213.160396
-6206.629158
-6192.160434
-6182.004203
-6187.941692
-6203.035414
-6207.754156
-6203.472913
-6210.566650
-6222.035379
-6230.535363
-6227.504119
-6213.129146
-6218.441636
-6240.129096
-6252.972822
-6262.066555
-6254.535319
-6233.316608
-6217.785387
-6189.785439
-6184.441699
-6191.129186
-6195.597928
-6195.504178
-6204.379162
-6233.347858
-6260.504058
-6266.660297
-6257.222814
-6241.910342
-6247.597832
-6281.441519
-6271.566538
-6243.316590
-6234.972855
-6254.035320
-6257.097814
-6241.879093
-6247.972831
-6265.066550
-6274.160283
-6232.441610
-6201.597917
-6230.191614
-6258.597812
-6240.691595
-6222.847878
-6217.472888
-6224.691624
-6258.660311
-6250.754076
-6262.504054
-6279.691523
-6298.003989
-6289.816504
-6254.441569
-6242.754091
-6232.566610
-6227.066620
-6194.879179
-6202.347916
-6210.285401
-6207.160407
-6221.816630
-6225.316623
-6231.941611
-6227.254120
-6230.504114
-6235.285355
-6244.410338
-6251.785324
-6239.160348
-6249.566578
-6264.285301
-6267.535295
-6262.035305
-6252.972822
-6243.504090
-6229.597865
-6209.785402
-6193.629182
-6226.097872
-6242.597841
-6230.597863
-6221.879129
-6216.722889
-6224.566624
-6223.035377
-6204.379162
-6202.785415
-6212.566647
-6204.879161
-6210.504150
-6240.910344
-6251.941574
-6259.379060
-6253.160322
-6236.066603
-6226.191621
-6222.316629
-6168.035479
-6167.441730
-6171.472973
-6162.660489
-6178.847959
-6208.660404
-6203.754163
-6187.191694
-6200.785418
-6225.066624
-6233.847857
-6250.254077
-6270.097790
-6308.847719
-6345.035152
-6360.066374
-6347.410148
-6341.472658
-6336.441418
-6332.785175
-6334.566421
-6350.410142
-6359.941374
-6339.535162
-6332.972674
-6340.878910
-6332.691425
-6337.222666
-6315.191457
-6317.753952
-6333.660173
-6315.191457
-6281.754019
-6300.785234
-6326.253937
-6325.097689
-6319.128950
-6291.347751
-6286.097761
-6272.754035
-6235.722854
-6223.191627
-6254.816569
-6264.660300
-6242.004092
-6243.379090
-6241.941592
-6234.004107
-6220.254132
-6238.129099
-6274.035283
-6284.691513
-6286.535260
-6237.347851
-6218.066637
-6223.410377
-6227.816618
-6232.629110
-6241.941592
-6245.754085
-6236.910352
-6222.285379
-6214.441643
-6227.066620
-6231.035363
-6215.347892
-6232.847859
-6242.754091
-6229.785365
-6247.316582
-6256.566565
-6249.754078
-6250.597826
-6225.129123
-6234.535356
-6261.972805
-6263.910302
-6267.722795
-6256.285316
-6235.472854
-6223.566626
-6204.847911
-6215.566641
-6248.472830
-6248.629080
-6220.097883
-6234.504106
-6241.254094
-6246.160335
-6242.066592
-6254.097820
-6278.816524
-6303.910228
-6294.253996
-6263.972802
-6264.097801
-6258.941561
-6249.316579
-6233.379108
-6214.035394
-6205.129160
-6200.785418
-6219.597884
-6236.035353
-6238.160349
-6215.222892
-6192.004185
-6198.035424
-6222.472878
-6239.316597
-6222.691628
-6217.785387
-6232.379110
-6233.379108
-6197.597924
-6197.097925
-6220.004133
-6223.379127
-6241.191594
-6262.660304
-6268.910293
-6262.847804
-6242.379092
-6204.691661
-6184.816698
-6194.316680
-6190.004188
-6201.035418
-6197.660424
-6187.441693
-6203.347914
-6232.191610
-6208.097905
-6199.066672
-6228.566617
-6265.691549
-6285.254012
-6267.191546
-6257.254064
-6253.972820
-6255.472817
-6249.722828
-6234.972855
-6244.347838
-6234.847855
-6215.785391
-6209.129153
-6199.597921
-6220.066633
-6235.754104
-6246.910333
-6232.972859
-6217.097888
-6224.035375
-6224.972874
-6213.035396
-6216.597889
-6233.847857
-6250.410327
-6248.691580
-6242.972840
-6250.316577
-6252.316573
-6248.035331
-6240.316595
-6255.472817
-6244.222838
-6226.347871
-6237.629100
-6248.066581
-6242.535341
-6218.629135
-6210.379151
-6225.441623
-6253.504071
-6248.754080
-6225.660372
-6225.660372
-6223.254127
-6235.754104
-6246.410334
-6255.847817
-6267.035296
-6241.629093
-6206.879157
-6196.379177
-6208.379154
-6201.191668
-6190.722937
-6189.379190
-6179.941707
-6184.222949
-6201.285418
-6220.972881
-6239.410347
-6242.222842
-6241.535343
-6243.785339
-6246.254084
-6232.410360
-6220.691632
-6220.472882
-6233.347858
-6231.504112
-6206.472908
-6199.972920
-6224.504125
-6232.941609
-6225.472873
-6228.347868
-6225.410373
-6230.222864
-6210.347901
-6240.816594
-6237.754100
-6215.754141
-6204.129162
-6196.722926
-6212.660396
-6208.879153
-6209.660402
-6206.879157
-6205.785409
-6190.754187
-6184.941698
-6183.129201
-6178.504210
-6180.347956
-6178.472960
-6191.191686
-6203.785413
-6208.254155
-6208.910403
-6232.847859
-6234.379106
-6198.379173
-6194.316680
-6155.629252
-6132.910544
-6152.566758
-6157.254249
-6161.785491
-6157.629248
-6160.441743
-6155.973001
-6169.066727
-6181.691704
-6193.910431
-6220.004133
-6204.441662
-6157.347999
-6134.691791
-6132.816794
-6134.723041
-6164.691735
-6184.816698
-6202.629165
-6212.129147
-6185.597947
-6167.535480
-6183.566700
-6187.910442
-6181.660454
-6177.785461
-6178.035460
-6196.441676
-6206.129159
-6220.097883
-6255.722817
-6234.535356
-6180.691706
-6170.972974
-6206.566658
-6241.129094
-6243.097840
-6248.316581
-6236.504102
-6229.316616
-6215.472891
-6219.816633
-6240.597845
-6243.129090
-6250.254077
-6244.379088
-6231.066612
-6197.410425
-6177.097962
-6172.535471
-6190.566687
-6202.379165
-6187.785442
-6203.504163
-6201.816667
-6208.785404
-6215.972890
-6217.222888
-6213.785394
-6200.066670
-6196.566676
-6223.160377
-6254.379069
-6256.722815
-6245.097837
-6232.004111
-6227.535369
-6232.754109
-6234.347856
-6238.816598
-6235.129105
-6254.847819
-6240.410345
-6214.566643
-6201.566667
-6196.629176
-6199.316671
-6211.816648
-6241.285344
-6252.066574
-6241.441593
-6243.566589
-6267.785295
-6312.191463
-6323.535192
-6304.722726
-6300.441484
-6282.566517
-6231.910361
-6215.691641
-6220.504132
-6223.879126
-6243.722839
-6224.972874
-6200.597919
-6205.816659
-6228.691617
-6256.660315
-6267.597795
-6262.379055
-6268.160294
-6273.660284
-6247.254083
-6251.379075
-6259.816559
-6254.566569
-6249.285329
-6255.254068
-6250.004077
-6239.222847
-6230.910363
-6238.316599
-6259.972809
-6247.191583
-6230.722863
-6242.004092
-6246.754083
-6241.972842
-6243.754089
-6257.785313
-6262.785304
-6252.816572
-6231.754111
-6245.847835
-6264.691550
-6255.972816
-6253.066572
-6271.597788
-6271.754037
-6248.629080
-6227.754119
-6247.035333
-6269.754041
-6275.066531
-6246.566584
-6222.660378
-6192.191684
-6215.785391
-6253.597821
-6244.691587
-6221.847880
-6212.410397
-6227.660369
-6245.847835
-6245.285336
-6225.722872
-6221.472880
-6239.410347
-6233.222859
-6220.222883
-6206.816657
-6189.816689
-6194.441680
-6211.597898
-6190.941687
-6178.222960
-6190.222938
-6202.129166
-6218.910385
-6219.722883
-6218.004137
-6230.004114
-6254.316570
-6239.191597
-6234.566606
-6254.379069
-6246.410334
-6254.597819
-6252.285323
-6244.816587
-6230.004114
-6220.754132
-6225.472873
-6246.785333
-6260.910307
-6241.722843
-6228.597867
-6221.504130
-6227.691619
-6242.097842
-6247.972831
-6252.472823
-6238.785348
-6239.285347
-6251.504075
-6279.441523
-6257.285314
-6233.504108
-6242.660341
-6247.847831
-6228.066618
-6222.660378
-6226.410371
-6220.222883
-6219.660384
-6209.441652
-6197.566674
-6203.785413
-6217.597887
-6228.254118
-6219.004135
-6212.129147
-6211.316649
-6226.941620
-6220.847881
-6213.191646
-6230.066614
-6229.160366
-6231.097862
-6247.004083
-6256.066566
-6234.254107
-6227.035370
-6236.129103
-6225.879122
-6230.691613
-6236.004103
-6222.347879
-6190.910437
-6190.160438
-6198.379173
-6208.535404
-6214.441643
-6226.879120
-6240.629095
-6252.535323
-6260.410308
-6246.816583
-6234.379106
-6218.472886
-6192.597934
-6198.629172
-6187.660443
-6184.660448
-6179.504208
-6190.785437
-6185.597947
-6178.035460
-6194.316680
-6201.660417
-6207.410406
-6213.535395
-6226.597871
-6229.410366
-6233.160359
-6213.722895
-6208.941653
-6232.379110
-6225.785372
-6237.535351
-6241.129094
-6255.660317
-6245.222836
-6220.097883
-6186.660445
-6190.847937
-6205.629159
-6204.722911
-6191.879185
-6184.910448
-6183.754200
-6209.691652
-6215.910390
-6214.566643
-6214.660393
-6228.066618
-6233.691608
-6242.285342
-6241.754093
-6236.004103
-6211.566649
-6218.785385
-6229.285366
-6210.035401
-6222.222879
-6221.847880
-6220.754132
-6230.816613
-6213.722895
-6198.066673
-6190.816687
-6204.347912
-6229.722865
-6232.285360
-6235.816604
-6249.972828
-6250.285327
-6243.504090
-6253.941570
-6266.097798
-6280.285272
-6267.191546
-6234.004107
-6230.066614
-6265.660299
-6282.254018
-6287.691508
-6273.535284
-6224.910374
-6216.972889
-6225.660372
-6219.035385
-6209.785402
-6229.379116
-6242.129092
-6253.847820
-6271.629038
-6259.316560
-6253.222822
-6270.129040
-6268.160294
-6251.566575
-6228.191618
-6210.254151
-6213.629145
-6237.535351
-6248.066581
-6258.160312
-6248.347831
-6226.504121
-6225.629123
-6221.660380
-6233.566608
-6232.847859
-6250.785326
-6262.535304
-6244.504088
-6237.410351
-6248.097831
-6262.035305
-6279.754023
-6280.754021
-6265.972798
-6256.472816
-6239.972846
-6227.410369
-6214.566643
-6237.535351
-6255.879067
-6227.004120
-6185.879196
-6185.535447
-6210.972900
-6198.910422
-6194.222931
-6207.035407
-6210.910400
-6208.472904
-6208.566654
-6216.222890
-6205.816659
-6196.379177
-6185.222947
-6190.972937
-6198.754172
-6171.222973
-6150.066762
-6161.410491
-6174.254217
-6161.660491
-6141.441778
-6152.004259
-6167.347980
-6168.597978
-6172.004222
-6193.191682
-6217.441638
-6237.066601
-6226.691621
-6228.660367
-6241.191594
-6263.722802
-6279.629023
-6281.972768
-6296.597741
-6326.503936
-6335.910169
-6322.441444
-6325.160189
-6344.035154
-6342.066407
-6370.597605
-6406.972537
-6412.066278
-6369.566357
-6324.816439
-6331.816426
-6339.097663
-6331.347677
-6296.347742
-6290.066503
-6287.066509
-6282.847767
-6280.441521
-6275.160281
-6265.004050
-6244.660337
-6233.847857
-6239.691597
-6256.691565
-6260.879057
-6240.129096
-6224.004126
-6216.754139
-6216.191640
-6228.441617
-6251.285325
-6256.941565
-6258.504062
-6251.910324
-6240.004096
-6262.410305
-6265.441549
-6261.535306
-6272.535286
-6276.535278
-6262.160305
-6267.816545
-6260.129059
-6257.066564
-6270.129040
-6252.316573
-6243.972839
-6250.660326
-6258.879061
-6262.004055
-6239.254097
-6237.629100
-6257.347814
-6262.347805
-6257.629063
-6282.660267
-6292.566499
-6276.566528
-6256.066566
-6242.535341
-6243.347840
-6250.535327
-6253.004072
-6254.004070
-6254.097820
-6231.441612
-6227.285369
-6224.129125
-6214.597893
-6226.754120
-6233.785357
-6235.347855
-6242.566591
-6253.941570
-6240.379095
-6226.660371
-6223.816626
-6220.316632
-6234.254107
-6246.879083
-6253.129072
-6240.754095
-6228.004118
-6212.285397
-6190.347938
-6208.691654
-6209.691652
-6218.472886
-6233.410358
-6212.941646
-6195.441678
-6214.191644
-6208.191655
-6204.785411
-6233.972857
-6252.722822
-6250.222827
-6249.722828
-6263.066553
-6265.941548
-6237.504101
-6219.316634
-6215.722891
-6225.597873
-6232.254110
-6228.066618
-6212.222897
-6212.972896
-6223.097877
-6200.379169
-6177.597961
-6195.910427
-6221.097881
-6235.754104
-6224.316625
-6204.004162
-6197.316675
-6214.597893
-6231.879111
-6222.285379
-6203.660413
-6208.879153
-6206.566658
-6203.254164
-6203.535413
-6210.191651
-6216.691639
-6199.816670
-6199.316671
-6207.066657
-6217.222888
-6227.160370
-6224.160375
-6224.941624
-6248.910330
-6269.972791
-6257.785313
-6261.722806
-6262.441555
-6258.097813
-6249.129079
-6249.597828
-6261.910305
-6237.754100
-6226.597871
-6226.410371
-6226.129122
-6205.222910
-6185.816696
-6204.535412
-6216.316640
-6233.129109
-6229.847865
-6223.504126
-6238.816598
-6252.597823
-6246.379084
-6244.847837
-6264.472801
-6251.910324
-6214.941642
-6192.285434
-6188.035442
-6186.816694
-6185.504197
-6179.941707
-6200.441669
-6232.847859
-6251.004076
-6237.379101
-6209.441652
-6205.972909
-6210.691650
-6210.035401
-6214.441643
-6217.129138
-6224.441625
-6234.254107
-6241.347843
-6231.285362
-6217.035388
-6211.504149
-6212.785396
-6219.566634
-6216.160390
-6200.972918
-6190.035438
-6208.879153
-6213.160396
-6190.847937
-6181.129205
-6182.035453
-6184.472949
-6201.191668
-6235.472854
-6249.504078
-6241.316594
-6217.910387
-6178.410460
-6201.410417
-6237.785350
-6241.285344
-6216.254140
-6196.129177
-6172.566721
-6170.879224
-6157.941748
-6164.222986
-6201.472917
-6204.191662
-6200.066670
-6212.129147
-6215.066642
-6199.879170
-6195.597928
-6208.941653
-6224.129125
-6229.941615
-6211.879148
-6207.660406
-6220.191633
-6228.847867
-6223.285377
-6220.722882
-6216.004140
-6205.629159
-6201.785417
-6199.035422
-6202.035416
-6192.535434
-6186.347945
-6207.222907
-6196.285427
-6180.379206
-6166.785481
-6177.535461
-6178.097960
-6184.910448
-6185.879196
-6185.191697
-6185.972946
-6193.816681
-6193.410432
-6192.785433
-6196.004177
-6188.379191
-6190.066688
-6192.316684
-6192.472934
-6198.316673
-6190.066688
-6189.379190
-6196.597926
-6221.785380
-6217.035388
-6210.941650
-6244.879087
-6248.660330
-6241.910342
-6242.379092
-6248.004081
-6266.316547
-6277.347777
-6281.691519
-6279.097774
-6247.097833
-6207.035407
-6220.129133
-6223.972876
-6239.410347
-6249.254079
-6247.222833
-6235.097855
-6234.910355
-6261.347807
-6275.660280
-6275.347781
-6277.847776
-6286.629010
-6300.066485
-6299.097737
-6285.285262
-6287.879008
-6293.347747
-6284.504014
-6295.191494
-6279.691523
-6283.410266
-6290.847752
-6277.379027
-6267.129046
-6246.441584
-6237.441601
-6247.910331
-6274.222783
-6291.691500
-6276.754028
-6283.347766
-6291.847750
-6289.816504
-6260.035309
-6266.972796
-6292.347749
-6283.066516
-6262.410305
-6268.847793
-6298.597738
-6299.472736
-6279.504023
-6268.285294
-6274.629032
-6267.629045
-6272.597786
-6287.847758
-6291.660251
-6282.254018
-6258.066563
-6268.691543
-6267.816545
-6276.535278
-6279.347773
-6273.566534
-6295.066494
-6312.441462
-6311.785213
-6307.628971
-6307.628971
-6302.097731
-6289.660254
-6276.941528
-6276.347779
-6300.222735
-6287.660258
-6276.129029
-6280.160272
-6279.410273
-6279.566523
-6283.972765
-6283.066516
-6287.972757
-6310.066467
-6300.472734
-6297.722739
-6299.816485
-6289.347755
-6294.660245
-6283.879015
-6268.910293
-6248.816580
-6243.004090
-6243.504090
-6247.785332
-6249.972828
-6239.097848
-6240.941594
-6257.660313
-6261.441556
-6232.410360
-6247.535332
-6266.847796
-6278.754024
-6299.972735
-6337.597666
-6352.566388
-6342.316407
-6309.910217
-6267.941544
-6268.879043
-6270.004041
-6270.316540
-6265.097800
-6259.347810
-6280.222772
-6303.347729
-6296.878991
-6291.191501
-6285.754011
-6278.191525
-6275.410281
-6299.722736
-6322.347694
-6319.066450
-6313.910209
-6328.535182
-6320.441447
-6297.160240
-6293.035248
-6296.597741
-6281.504019
-6276.941528
-6277.754026
-6267.285296
-6277.597777
-6271.879037
-6259.347810
-6278.254025
-6269.222792
-6263.379053
-6259.754059
-6273.629034
-6290.066503
-6305.191476
-6293.378997
-6278.535275
-6292.503999
-6305.347725
-6302.222731
-6288.816506
-6287.379008
-6281.910269
-6292.316499
-6293.316497
-6302.660230
-6310.691465
-6259.316560
-6228.722867
-6259.066561
-6273.722784
-6276.066529
-6265.816548
-6271.816537
-6290.816502
-6294.628995
-6297.503990
-6297.097740
-6305.441475
-6304.660227
-6286.160261
-6257.847813
-6262.097805
-6280.941520
-6263.379053
-6250.847826
-6283.629015
-6281.285270
-6243.097840
-6232.629110
-6250.035327
-6267.504045
-6256.660315
-6251.285325
-6250.629076
-6267.691545
-6291.754000
-6277.441527
-6289.254005
-6307.410221
-6286.504010
-6255.129068
-6255.566567
-6248.347831
-6237.347851
-6234.847855
-6217.160388
-6207.785406
-6198.660422
-6191.097936
-6188.222942
-6192.910433
-6198.410423
-6202.629165
-6215.816641
-6216.441640
-6232.222860
-6232.691609
-6252.535323
-6258.410312
-6239.566597
-6228.285368
-6225.129123
-6223.629126
-6210.066651
-6207.097907
-6214.410393
-6220.347882
-6241.754093
-6241.097844
-6251.254075
-6261.160307
-6261.691556
-6235.410354
-6248.472830
-6271.785287
-6267.691545
-6270.754039
-6279.066524
-6285.504012
-6275.597780
-6277.004028
-6271.004039
-6276.160279
-6279.441523
-6248.660330
-6238.347849
-6252.660323
-6269.285292
-6241.691593
-6203.941663
-6218.129136
-6246.254084
-6270.972789
-6276.129029
-6278.879024
-6291.785250
-6296.285242
-6273.285284
-6275.285281
-6302.660230
-6295.785243
-6268.222794
-6269.660291
-6276.160279
-6265.879048
-6261.972805
-6252.972822
-6245.847835
-6239.316597
-6236.597852
-6252.254073
-6258.410312
-6254.004070
-6246.472834
-6251.691574
-6262.097805
-6273.285284
-6276.472779
-6279.316523
-6296.722741
-6283.472766
-6279.722773
-6305.597725
-6312.097713
-6272.847785
-6238.941598
-6231.660361
-6258.379062
-6281.254020
-6269.566541
-6242.129092
-6236.660352
-6238.129099
-6250.535327
-6268.129044
-6270.722789
-6279.910272
-6276.254029
-6235.316605
-6223.285377
-6249.160329
-6261.160307
-6257.004065
-6263.879052
-6264.941550
-6237.972850
-6223.535376
-6219.066635
-6203.347914
-6207.191657
-6210.566650
-6202.691665
-6194.066681
-6198.785422
-6198.816672
-6205.691659
-6211.097899
-6215.816641
-6208.316655
-6198.566673
-6197.910424
-6192.879183
-6200.879168
-6201.816667
-6192.129184
-6177.660461
-6186.816694
-6185.816696
-6156.660500
-6147.910516
-6146.941768
-6145.348021
-6148.285515
-6144.598022
-6155.598002
-6177.129212
-6197.254175
-6227.535369
-6254.785319
-6291.472751
-6315.472707
-6311.035215
-6314.003959
-6349.035145
-6366.941361
-6368.035109
-6366.128863
-6356.472631
-6327.597684
-6318.503951
-6334.785171
-6314.128959
-6301.628982
-6298.410238
-6304.878976
-6310.535216
-6306.441473
-6327.378935
-6329.941430
-6292.410249
-6273.004035
-6268.629043
-6267.535295
-6283.097766
-6286.441510
-6287.004009
-6270.972789
-6252.316573
-6242.910341
-6252.316573
-6246.066585
-6216.785389
-6202.879165
-6219.441634
-6227.066620
-6221.254131
-6205.722909
-6220.785381
-6241.066594
-6247.785332
-6242.316592
-6263.316553
-6289.879004
-6298.503988
-6280.004022
-6251.816574
-6256.879065
-6258.785311
-6256.535315
-6249.191579
-6261.379056
-6272.129037
-6248.660330
-6224.191625
-6214.629143
-6221.504130
-6208.754154
-6206.316658
-6217.222888
-6253.504071
-6257.379064
-6247.441582
-6255.347818
-6256.254066
-6251.754074
-6252.597823
-6246.035335
-6238.566599
-6229.597865
-6222.972877
-6219.160384
-6254.410319
-6249.004079
-6233.066609
-6216.066640
-6190.722937
-6205.504160
-6236.097853
-6252.722822
-6249.972828
-6238.722848
-6216.316640
-6240.254096
-6257.410314
-6251.160325
-6263.816552
-6281.816519
-6258.191562
-6226.410371
-6236.816602
-6235.972853
-6227.410369
-6207.941655
-6199.160421
-6210.285401
-6216.004140
-6215.535391
-6211.222899
-6224.285375
-6252.504073
-6257.035315
-6247.660332
-6244.785337
-6264.066552
-6270.035290
-6268.129044
-6258.129062
-6259.254060
-6248.191581
-6236.504102
-6247.504082
-6261.254057
-6260.097809
-6222.285379
-6194.972929
-6205.222910
-6223.629126
-6230.410364
-6237.535351
-6255.285318
-6268.847793
-6277.347777
-6261.535306
-6246.691584
-6248.972829
-6249.535328
-6251.285325
-6247.285333
-6254.597819
-6257.941563
-6253.222822
-6236.879102
-6238.941598
-6245.566586
-6213.504145
-6203.191664
-6193.316682
-6213.441645
-6239.722846
-6242.035342
-6232.535360
-6225.097874
-6224.316625
-6226.629121
-6245.910335
-6260.660308
-6257.285314
-6256.347816
-6255.597817
-6266.972796
-6275.972780
-6263.379053
-6259.097811
-6263.472803
-6241.816593
-6230.441614
-6221.129131
-6219.660384
-6220.941631
-6220.410382
-6245.316586
-6249.535328
-6238.316599
-6227.816618
-6239.660347
-6257.066564
-6248.441580
-6214.191644
-6191.504186
-6205.535410
-6199.785420
-6185.410447
-6180.191706
-6201.129168
-6209.535402
-6195.629178
-6183.785450
-6183.566700
-6197.754174
-6200.379169
-6205.879159
-6204.316662
-6205.785409
-6218.847885
-6203.691663
-6200.285419
-6205.160410
-6215.191642
-6207.347906
-6204.222912
-6212.691646
-6207.722906
-6183.535450
-6174.785466
-6186.472945
-6179.910457
-6187.879192
-6193.629182
-6193.660432
-6206.285408
-6204.066662
-6207.097907
-6217.160388
-6218.660385
-6225.629123
-6230.785363
-6238.066600
-6243.379090
-6255.566567
-6259.379060
-6246.410334
-6210.535400
-6205.285410
-6219.379134
-6237.160351
-6228.129118
-6198.410423
-6195.379178
-6198.316673
-6197.535424
-6178.097960
-6185.379197
-6202.285416
-6209.972901
-6202.160416
-6182.066703
-6188.785441
-6205.785409
-6213.535395
-6194.691680
-6189.160440
-6206.410408
-6213.910394
-6198.191673
-6195.347928
-6203.816663
-6182.441702
-6176.879213
-6171.129223
-6158.066747
-6168.066729
-6176.410463
-6183.254201
-6188.722941
-6215.910390
-6225.629123
-6222.879128
-6233.972857
-6226.722871
-6214.035394
-6200.097920
-6199.160421
-6184.629198
-6184.504199
-6193.566682
-6204.254162
-6208.722904
-6190.160438
-6178.535460
-6184.910448
-6182.879202
-6179.754207
-6202.347916
-6220.785381
-6226.410371
-6227.129120
-6233.972857
-6245.410336
-6246.941583
-6243.691589
-6233.316608
-6235.504104
-6245.816585
-6240.066596
-6236.472852
-6230.629113
-6235.535354
-6233.160359
-6235.254105
-6222.441628
-6219.535384
-6227.129120
-6228.129118
-6241.660343
-6249.660328
-6253.816570
-6249.285329
-6256.222816
-6275.941530
-6279.160274
-6291.754000
-6280.347771
-6265.691549
-6276.566528
-6299.222737
-6255.629067
-6234.160357
-6238.254099
-6226.597871
-6214.410393
-6213.004146
-6244.597837
-6265.941548
-6283.535266
-6279.847772
-6257.347814
-6255.441567
-6261.691556
-6277.941526
-6264.941550
-6254.066570
-6269.972791
-6264.129051
-6271.972787
-6283.097766
-6287.566508
-6268.847793
-6248.754080
-6231.379112
-6224.379125
-6225.816622
-6222.035379
-6219.316634
-6224.691624
-6238.191599
-6246.910333
-6250.004077
-6253.160322
-6253.660321
-6263.222803
-6264.191551
-6255.160318
-6245.660336
-6242.410342
-6243.441590
-6250.222827
-6236.504102
-6239.629097
-6241.285344
-6238.441599
-6233.754108
-6200.722919
-6207.160407
-6212.410397
-6218.254136
-6246.879083
-6274.566532
-6277.972776
-6260.004059
-6251.566575
-6270.941539
-6291.722750
-6282.535267
-6274.972781
-6271.597788
-6255.816567
-6258.129062
-6271.160288
-6283.879015
-6270.879039
-6252.566573
-6249.347829
-6238.566599
-6228.910366
-6232.910359
-6248.222831
-6256.785315
-6268.754043
-6255.066568
-6252.504073
-6264.472801
-6264.254051
-6259.285310
-6250.691576
-6252.910322
-6254.097820
-6250.097827
-6245.597836
-6255.004068
-6269.097792
-6246.129085
-6221.004131
-6210.472901
-6229.472865
-6235.785354
-6238.972848
-6252.691573
-6273.972783
-6259.504060
-6242.785341
-6243.847839
-6240.472845
-6242.754091
-6259.941559
-6257.910313
-6254.691569
-6243.535339
-6236.972852
-6224.410375
-6219.097885
-6207.816655
-6210.316651
-6212.597897
-6195.660428
-6197.972924
-6222.535378
-6237.160351
-6247.410332
-6241.347843
-6220.785381
-6225.722872
-6252.191573
-6266.504047
-6269.254042
-6262.222805
-6268.472793
-6261.691556
-6252.972822
-6241.722843
-6238.597849
-6245.004087
-6249.160329
-6232.597860
-6231.785361
-6248.347831
-6228.097868
-6220.254132
-6224.004126
-6223.379127
-6235.597854
-6245.379086
-6266.879046
-6268.847793
-6264.441551
-6277.879026
-6290.472753
-6262.597804
-6213.191646
-6204.629161
-6210.754150
-6222.066629
-6226.191621
-6218.972885
-6227.222870
-6237.097851
-6243.410340
-6252.004074
-6266.629047
-6259.222810
-6262.160305
-6262.472804
-6243.097840
-6240.316595
-6249.097829
-6283.847765
-6284.035265
-6265.847798
-6250.722826
-6246.910333
-6245.441586
-6262.222805
-6248.441580
-6219.535384
-6229.722865
-6236.941602
-6253.972820
-6249.035329
-6258.910311
-6267.254046
-6262.847804
-6252.066574
-6242.816591
-6266.660297
-6265.660299
-6259.347810
-6260.972807
-6256.097816
-6236.004103
-6226.691621
-6247.816582
-6264.972800
-6273.160285
-6246.972833
-6221.535380
-6220.222883
-6233.222859
-6243.035340
-6243.785339
-6263.785302
-6299.316486
-6319.628949
-6289.535254
-6261.379056
-6261.129057
-6273.785284
-6282.316518
-6265.347799
-6256.629065
-6249.160329
-6244.347838
-6257.535314
-6298.691488
-6294.191496
-6260.691558
-6240.160346
-6228.972866
-6254.660319
-6259.472810
-6248.410330
-6260.472808
-6277.816526
-6292.878998
-6288.222757
-6284.129014
-6296.972741
-6303.410229
-6285.566512
-6268.160294
-6274.754032
-6284.285264
-6277.597777
-6245.754085
-6257.160314
-6279.222774
-6266.722797
-6266.972796
-6266.441547
-6252.754072
-6249.004079
-6268.660293
-6276.035279
-6279.629023
-6264.535301
-6262.410305
-6276.097779
-6293.847746
-6311.785213
-6312.160213
-6296.347742
-6284.941513
-6255.316568
-6230.754113
-6225.472873
-6226.410371
-6222.285379
-6244.347838
-6237.035351
-6227.379119
-6214.629143
-6229.754115
-6253.379071
-6270.754039
-6269.660291
-6244.879087
-6242.691591
-6260.504058
-6262.347805
-6252.785322
-6241.129094
-6225.660372
-6218.660385
-6240.097846
-6246.004085
-6240.472845
-6225.222873
-6211.472899
-6216.597889
-6228.410367
-6225.754122
-6210.785400
-6218.316636
-6214.316643
-6215.941640
-6211.722898
-6199.316671
-6200.629169
-6198.066673
-6203.379164
-6196.941676
-6217.879137
-6218.410386
-6205.504160
-6197.285425
-6201.191668
-6219.941633
-6216.285390
-6230.254114
-6241.816593
-6216.879139
-6197.004175
-6196.910426
-6239.941596
-6284.285264
-6312.128963
-6322.878943
-6336.003919
-6336.441418
-6342.972656
-6368.160109
-6385.910076
-6393.847562
-6392.253815
-6402.222546
-6367.628860
-6345.503901
-6349.285144
-6350.628892
-6354.972634
-6350.097643
-6345.972650
-6339.535162
-6333.910172
-6326.378936
-6313.878959
-6294.910245
-6294.160246
-6317.472703
-6332.222676
-6313.410210
-6288.629006
-6287.785258
-6285.316512
-6291.722750
-6269.566541
-6258.160312
-6273.472784
-6283.066516
-6273.160285
-6259.347810
-6263.847802
-6275.879030
-6284.566514
-6285.629012
-6265.754048
-6265.254049
-6279.347773
-6312.066463
-6313.410210
-6299.347736
-6295.253994
-6276.441529
-6270.035290
-6260.347808
-6248.847830
-6243.004090
-6273.160285
-6277.566527
-6253.879070
-6251.160325
-6249.285329
-6257.566564
-6264.629050
-6274.629032
-6280.816521
-6268.660293
-6243.160340
-6246.035335
-6275.129031
-6291.504001
-6290.004004
-6268.097794
-6262.691554
-6261.785306
-6254.941568
-6265.066550
-6261.722806
-6263.754052
-6259.660310
-6270.316540
-6283.097766
-6295.660243
-6295.847743
-6285.629012
-6275.972780
-6288.347757
-6301.160233
-6278.566525
-6275.722780
-6275.941530
-6277.472777
-6285.410262
-6280.566521
-6263.941552
-6241.629093
-6244.379088
-6258.785311
-6271.472788
-6267.972794
-6262.785304
-6245.754085
-6229.004116
-6242.660341
-6243.754089
-6247.035333
-6252.504073
-6269.785291
-6276.597778
-6287.535258
-6293.535247
-6288.816506
-6286.722760
-6273.254035
-6248.441580
-6233.410358
-6227.254120
-6232.660360
-6244.379088
-6263.535302
-6248.847830
-6240.754095
-6243.441590
-6231.347862
-6227.660369
-6260.972807
-6282.379018
-6282.879017
-6294.035246
-6264.347801
-6253.597821
-6298.847737
-6300.660234
-6280.629021
-6257.410314
-6245.254086
-6233.597858
-6230.191614
-6223.410377
-6237.722850
-6241.660343
-6235.254105
-6236.847852
-6239.691597
-6238.066600
-6229.629115
-6243.879089
-6270.535290
-6265.972798
-6254.316570
-6250.222827
-6254.066570
-6260.754058
-6270.816539
-6245.972835
-6229.504115
-6243.379090
-6252.879072
-6245.254086
-6248.535330
-6253.191572
-6238.629099
-6235.066605
-6233.941607
-6228.504117
-6230.910363
-6239.785346
-6243.347840
-6247.972831
-6249.129079
-6246.722834
-6260.316558
-6271.785287
-6278.441525
-6266.410297
-6251.441575
-6239.441597
-6244.504088
-6240.879094
-6226.722871
-6227.504119
-6233.191609
-6223.222877
-6233.254108
-6242.722841
-6251.972824
-6235.347855
-6219.535384
-6227.566619
-6248.847830
-6257.254064
-6274.472782
-6271.847787
-6256.347816
-6257.629063
-6260.972807
-6258.660311
-6250.410327
-6222.754128
-6206.785407
-6207.660406
-6207.254156
-6187.097944
-6192.347934
-6197.910424
-6210.410401
-6207.410406
-6207.785406
-6216.004140
-6205.410410
-6176.941712
-6167.441730
-6197.222925
-6213.535395
-6222.347879
-6226.191621
-6232.347860
-6252.597823
-6250.847826
-6244.910337
-6216.004140
-6228.254118
-6231.535362
-6194.129181
-6162.316740
-6167.222980
-6199.316671
-6208.066655
-6203.254164
-6198.972922
-6199.785420
-6189.222940
-6182.191703
-6213.566645
-6241.472843
-6248.879080
-6223.285377
-6203.660413
-6188.160442
-6194.285430
-6196.347927
-6177.410462
-6190.847937
-6196.160427
-6176.629213
-6182.004203
-6208.191655
-6210.722900
-6208.472904
-6215.347892
-6215.316642
-6216.254140
-6218.066637
-6235.097855
-6249.004079
-6242.160342
-6247.754082
-6248.097831
-6239.035348
-6227.254120
-6233.691608
-6234.535356
-6232.629110
-6238.129099
-6216.129140
-6217.597887
-6238.504099
-6243.722839
-6238.035350
-6253.691571
-6252.691573
-6264.660300
-6251.910324
-6243.629089
-6251.754074
-6246.347834
-6233.066609
-6227.347869
-6228.941616
-6222.910378
-6231.754111
-6246.441584
-6250.191577
-6248.191581
-6246.722834
-6243.660339
-6223.222877
-6216.222890
-6228.035368
-6220.660382
-6239.035348
-6268.910293
-6263.879052
-6238.472849
-6237.910350
-6250.504077
-6254.410319
-6263.222803
-6255.504067
-6236.847852
-6234.785356
-6243.847839
-6224.629124
-6235.129105
-6257.691563
-6260.722808
-6248.222831
-6248.285331
-6258.035313
-6261.097807
-6264.910300
-6258.597812
-6272.097787
-6278.191525
-6273.597784
-6279.629023
-6287.347758
-6276.879028
-6259.910309
-6264.691550
-6248.347831
-6243.754089
-6231.160362
-6227.191620
-6240.535345
-6236.035353
-6227.910368
-6235.066605
-6251.410325
-6250.660326
-6249.504078
-6269.191542
-6278.754024
-6268.347794
-6252.816572
-6264.972800
-6265.785298
-6262.035305
-6253.347821
-6257.597813
-6268.566543
-6259.066561
-6249.847828
-6232.129111
-6227.722869
-6233.097859
-6227.379119
-6237.254101
-6247.004083
-6260.847807
-6250.035327
-6259.316560
-6261.785306
-6252.347823
-6250.879076
-6261.597806
-6265.035300
-6258.254062
-6268.597793
-6267.691545
-6276.160279
-6283.972765
-6260.254059
-6239.722846
-6240.566595
-6254.629069
-6234.941605
-6225.816622
-6227.941618
-6228.004118
-6231.441612
-6248.566580
-6276.660278
-6276.472779
-6279.004024
-6260.941557
-6255.754067
-6262.191555
-6248.097831
-6247.379082
-6248.254081
-6257.629063
-6258.785311
-6232.347860
-6216.597889
-6230.254114
-6246.472834
-6234.191607
-6235.972853
-6239.941596
-6247.441582
-6270.160290
-6262.191555
-6248.722830
-6255.879067
-6256.035316
-6245.160336
-6257.629063
-6269.816541
-6278.097776
-6278.722774
-6265.816548
-6260.379058
-6257.754063
-6242.972840
-6230.691613
-6254.691569
-6256.879065
-6243.910339
-6237.722850
-6228.785367
-6222.504128
-6233.691608
-6253.785321
-6253.785321
-6243.597839
-6237.472851
-6251.347825
-6259.597810
-6241.535343
-6231.379112
-6235.754104
-6240.191596
-6245.754085
-6239.410347
-6230.660363
-6232.035361
-6245.379086
-6256.504065
-6235.879104
-6203.410414
-6221.660380
-6255.347818
-6275.879030
-6266.972796
-6253.035322
-6218.160386
-6207.910405
-6246.847833
-6247.222833
-6226.816620
-6221.722880
-6227.285369
-6222.754128
-6215.535391
-6222.285379
-6227.035370
-6240.816594
-6230.347864
-6226.129122
-6219.660384
-6231.597862
-6235.691604
-6252.066574
-6268.379044
-6268.472793
-6249.597828
-6235.004105
-6248.879080
-6262.004055
-6266.066548
-6271.347788
-6262.754054
-6253.472821
-6240.066596
-6232.004111
-6220.160383
-6236.910352
-6255.097818
-6245.410336
-6233.879107
-6220.691632
-6216.441640
-6215.754141
-6236.722852
-6258.160312
-6266.222798
-6259.754059
-6244.097838
-6242.316592
-6241.379093
-6254.035320
-6261.472806
-6258.816561
-6278.097776
-6272.910285
-6237.879100
-6227.941618
-6240.566595
-6254.816569
-6247.379082
-6223.285377
-6222.222879
-6234.254107
-6216.097890
-6223.597876
-6239.222847
-6241.910342
-6238.816598
-6252.504073
-6254.160320
-6239.535347
-6249.941578
-6268.597793
-6288.847756
-6283.129016
-6260.410308
-6254.597819
-6249.410329
-6254.535319
-6254.629069
-6266.097798
-6272.285286
-6279.160274
-6269.129042
-6279.504023
-6278.910274
-6278.847774
-6280.504021
-6285.816511
-6298.816487
-6292.222749
-6293.410247
-6300.753984
-6295.753993
-6297.972739
-6307.347722
-6309.628967
-6303.785228
-6307.847721
-6282.535267
-6263.129053
-6269.097792
-6299.597736
-6315.160207
-6294.941494
-6290.566503
-6304.753976
-6315.441457
-6315.941456
-6331.660177
-6349.628893
-6339.441412
-6331.410177
-6343.003906
-6348.316396
-6325.191439
-6327.941433
-6327.253935
-6331.253927
-6315.753956
-6300.035235
-6303.253979
-6301.160233
-6306.347723
-6317.785202
-6338.316414
-6361.816371
-6363.722617
-6349.566394
-6331.628927
-6325.378938
-6316.191455
-6321.816445
-6313.410210
-6311.941463
-6314.097709
-6315.785206
-6315.660206
-6309.378968
-6321.128946
-6311.253964
-6293.035248
-6295.628993
-6306.222724
-6306.660223
-6307.972720
-6332.316425
-6350.316392
-6352.191389
-6331.722676
-6316.128955
-6321.722695
-6324.472690
-6328.285183
-6316.035205
-6309.722717
-6306.753973
-6281.691519
-6260.722808
-6264.254051
-6278.129026
-6263.972802
-6239.347847
-6230.566613
-6244.629087
-6260.066559
-6278.879024
-6296.535242
-6310.785215
-6294.910245
-6262.910304
-6272.691536
-6318.316451
-6321.722695
-6297.472740
-6298.285238
-6296.191492
-6296.691491
-6309.066468
-6322.972693
-6354.191385
-6352.628888
-6355.535132
-6384.972578
-6394.503810
-6409.941282
-6437.284981
-6462.534935
-6481.128650
-6472.222417
-6452.659953
-6449.941208
-6455.034949
-6456.003697
-6457.878693
-6451.253706
-6443.347470
-6422.316259
-6401.878797
-6401.285048
-6406.910038
-6393.253813
-6354.847634
-6340.503910
-6340.722660
-6344.941402
-6354.941384
-6373.910099
-6374.347598
-6367.910110
-6359.816375
-6355.472633
-6379.628838
-6388.097572
-6390.941317
-6382.378833
-6387.441324
-6395.628808
-6390.160069
-6381.285085
-6368.410109
-6390.066319
-6392.128815
-6386.566325
-6382.847582
-6369.160107
-6370.160105
-6371.660103
-6391.816315
-6421.253761
-6427.753749
-6395.378809
-6395.160059
-6394.222561
-6386.597575
-6403.878793
-6405.566290
-6413.785025
-6409.253783
-6394.753810
-6377.503842
-6372.722601
-6388.410072
-6385.441327
-6385.597577
-6372.472601
-6356.316381
-6349.191394
-6362.222620
-6373.128850
-6382.441333
-6378.941339
-6376.222594
-6391.753816
-6391.910065
-6386.285076
-6391.816315
-6396.347557
-6373.878849
-6361.785121
-6351.128891
-6353.347637
-6364.566366
-6346.253900
-6345.253901
-6343.128905
-6352.035139
-6360.722623
-6370.535105
-6376.097595
-6374.691347
-6369.722606
-6368.660108
-6377.660092
-6369.941356
-6369.722606
-6382.660082
-6371.191354
-6366.878862
-6358.191378
-6355.003883
-6363.160118
-6376.472594
-6365.035115
-6351.660140
-6355.003883
-6363.753867
-6383.378831
-6388.691321
-6390.316318
-6401.972547
-6413.441276
-6396.628807
-6375.691345
-6381.222585
-6388.410072
-6389.503820
-6383.378831
-6380.035087
-6370.347605
-6353.378886
-6339.128913
-6336.847667
-6351.753889
-6341.972658
-6329.785180
-6331.285177
-6341.097659
-6343.847654
-6336.191418
-6344.566403
-6346.191400
-6357.410129
-6359.316376
-6366.753862
-6376.753843
-6368.660108
-6360.722623
-6349.972643
-6341.222659
-6352.035139
-6351.128891
-6327.753934
-6328.785182
-6342.503907
-6324.222690
-6328.160183
-6335.066420
-6336.316418
-6348.222646
-6363.847617
-6348.535145
-6334.628921
-6340.972659
-6367.191361
-6363.347618
-6334.191422
-6331.628927
-6330.972678
-6328.097683
-6315.941456
-6303.347729
-6294.535245
-6299.160237
-6306.160224
-6291.066502
-6284.472764
-6287.222759
-6285.691512
-6299.066487
-6313.785210
-6319.691449
-6314.378959
-6327.566434
-6342.285157
-6341.785158
-6334.847671
-6323.878941
-6312.191463
-6322.222694
-6337.753915
-6330.785178
-6306.222724
-6278.941524
-6288.254007
-6300.566484
-6280.785271
-6280.222772
-6282.285268
-6291.972750
-6294.972744
-6299.253986
-6312.410212
-6330.660178
-6325.753938
-6306.441473
-6316.816454
-6314.660208
-6306.160224
-6302.816480
-6302.128981
-6298.972737
-6292.441499
-6284.504014
-6283.472766
-6290.629002
-6283.441516
-6270.722789
-6263.879052
-6261.597806
-6271.816537
-6283.941515
-6303.378979
-6321.160196
-6337.691415
-6313.097711
-6275.941530
-6276.910278
-6289.566504
-6285.566512
-6271.535288
-6265.347799
-6255.285318
-6248.441580
-6232.879109
-6247.941581
-6258.347812
-6265.191549
-6287.722758
-6281.316520
-6287.910257
-6294.753995
-6293.035248
-6285.379012
-6278.254025
-6274.910281
-6273.847783
-6300.472734
-6312.410212
-6292.972748
-6292.285249
-6299.628986
-6295.160244
-6257.191564
-6257.910313
-6278.222775
-6294.128996
-6294.816495
-6268.754043
-6249.972828
-6250.566576
-6274.847782
-6281.222770
-6285.191512
-6296.753991
-6300.347734
-6286.816509
-6282.441518
-6296.816491
-6301.878982
-6294.972744
-6276.504029
-6283.441516
-6287.785258
-6286.504010
-6289.691504
-6304.253977
-6311.878963
-6286.754010
-6268.316544
-6287.816508
-6294.753995
-6299.535236
-6323.160192
-6319.691449
-6321.222696
-6320.816447
-6305.160226
-6305.285225
-6310.785215
-6318.347701
-6320.441447
-6311.847713
-6309.660217
-6304.160227
-6318.472701
-6334.441421
-6322.472694
-6294.316496
-6267.191546
-6270.566540
-6276.722778
-6302.003981
-6305.660225
-6309.097718
-6327.410184
-6356.597631
-6352.222639
-6344.941402
-6336.691417
-6324.128941
-6336.941417
-6327.785184
-6301.753982
-6302.191481
-6307.222722
-6305.566475
-6324.566440
-6340.441410
-6332.441425
-6323.597692
-6291.691500
-6287.785258
-6307.597721
-6337.847665
-6341.378909
-6340.253911
-6332.753925
-6328.753932
-6334.722671
-6338.410164
-6342.347657
-6346.816399
-6335.941419
-6309.597717
-6300.347734
-6296.503992
-6277.004028
-6286.129011
-6286.691510
-6276.097779
-6272.191536
-6272.160287
-6275.254031
-6279.879022
-6303.597728
-6316.566455
-6330.972678
-6329.597680
-6311.410214
-6310.035217
-6326.628936
-6327.597684
-6308.878969
-6331.691427
-6341.566408
-6324.660190
-6299.566486
-6299.535236
-6295.660243
-6272.066537
-6283.347766
-6295.535243
-6300.691484
-6294.535245
-6302.535230
-6317.441453
-6326.285187
-6339.253913
-6334.160172
-6329.316431
-6346.003900
-6348.878895
-6317.191453
-6300.535234
-6300.222735
-6298.003989
-6323.753941
-6329.097681
-6316.535205
-6290.066503
-6280.535271
-6282.035268
-6278.285275
-6279.754023
-6283.441516
-6295.066494
-6297.035241
-6316.222705
-6328.847682
-6342.285157
-6335.160170
-6318.566451
-6322.785193
-6316.410205
-6303.503979
-6296.691491
-6299.691486
-6295.535243
-6300.785234
-6310.566466
-6272.222786
-6250.004077
-6256.410316
-6281.285270
-6295.066494
-6306.691473
-6309.722717
-6318.816450
-6312.410212
-6299.910235
-6318.503951
-6336.378918
-6342.535157
-6354.128885
-6348.753895
-6311.910213
-6301.753982
-6315.753956
-6330.691428
-6350.253892
-6325.285188
-6288.629006
-6272.629036
-6287.441508
-6304.222727
-6295.285244
-6292.847748
-6298.097739
-6323.722691
-6323.378942
-6312.347712
-6310.316466
-6318.472701
-6340.316411
-6336.628917
-6333.503923
-6320.503947
-6315.003957
-6308.253970
-6282.879017
-6283.566515
-6290.129003
-6273.160285
-6287.722758
-6310.441466
-6314.035209
-6304.066478
-6278.504025
-6266.629047
-6283.566515
-6274.472782
-6282.504017
-6307.910220
-6326.691436
-6319.128950
-6315.722706
-6321.128946
-6297.816489
-6297.066491
-6294.910245
-6290.066503
-6308.941469
-6317.003954
-6316.222705
-6281.847769
-6260.191559
-6315.003957
-6360.347624
-6325.066439
-6253.066572
-6263.066553
-6291.097752
-6301.347733
-6319.191450
-6307.785221
-6289.566504
-6299.691486
-6300.878983
-6280.160272
-6280.285272
-6295.222744
-6289.941504
-6237.660350
-6221.910379
-6233.566608
-6270.504040
-6290.035254
-6276.504029
-6264.316551
-6266.191548
-6267.785295
-6279.504023
-6310.628965
-6342.410157
-6372.910100
-6399.941300
-6375.753845
-6304.753976
-6252.004074
-6260.254059
-6293.816497
-6314.816458
-6307.285222
-6308.222720
-6321.003946
-6320.628947
-6309.222718
-6267.535295
-6240.222846
-6272.410286
-6297.722739
-6267.472795
-6239.441597
-6295.410244
-6288.660256
-6273.441534
-6306.285224
-6333.472673
-6355.691382
-6297.066491
-6210.910400
-6228.472867
-6246.129085
-6234.035357
-6251.254075
-6289.660254
-6316.097705
-6316.816454
-6312.472712
-6310.816465
-6319.597699
-6299.847735
-6304.253977
-6359.035126
-6378.128841
-6358.878876
-6370.878854
-6340.191411
-6237.910350
-6214.785393
-6263.879052
-6268.785293
-6274.754032
-6276.347779
-6263.722802
-6243.785339
-6273.316534
-6311.753963
-6319.160200
-6283.941515
-6263.191553
-6273.879033
-6264.847800
-6262.816554
-6311.660214
-6320.847697
-6323.878941
-6316.628954
-6323.910191
-6286.441510
-6273.004035
-6292.535249
-6312.222713
-6333.566423
-6278.941524
-6252.035324
-6233.629108
-6248.816580
-6295.410244
-6345.816400
-6364.597616
-6303.410229
-6273.785284
-6292.816498
-6321.191446
-6371.378853
-6355.191383
-6342.035157
-6338.035165
-6308.441470
-6279.566523
-6293.660247
-6298.285238
-6311.066465
-6278.504025
-6241.941592
-6265.472799
-6299.285236
-6294.628995
-6258.910311
-6253.535321
-6293.566497
-6289.722754
-6270.035290
-6261.816556
-6281.816519
-6312.472712
-6304.910226
-6239.004098
-6225.566623
-6253.410321
-6305.628975
-6297.941489
-6225.722872
-6203.504163
-6214.066644
-6221.254131
-6227.254120
-6200.066670
-6186.754194
-6217.785387
-6270.691539
-6296.660241
-6267.410295
-6185.472947
-6216.816639
-6282.035268
-6289.910254
-6260.629058
-6248.160331
-6269.160292
-6273.097785
-6230.441614
-6209.254153
-6231.097862
-6272.597786
-6297.160240
-6330.753928
-6347.910147
-6366.003863
-6401.097548
-6414.378774
-6380.035087
-6395.128809
-6425.597503
-6440.722475
-6409.535033
-6362.785119
-6386.347576
-6399.566301
-6388.128822
-6393.597562
-6358.816376
-6290.691502
-6296.222742
-6359.128876
-6391.753816
-6309.253968
-6236.504102
-6224.972874
-6238.566599
-6256.379066
-6268.629043
-6287.410258
-6310.816465
-6306.066474
-6304.160227
-6326.628936
-6315.378957
-6304.066478
-6326.035187
-6327.378935
-6291.879000
-6302.222731
-6274.629032
-6266.316547
-6291.254001
-6277.191527
-6276.316529
-6295.035244
-6311.410214
-6323.753941
-6336.753917
-6336.035169
-6351.410140
-6326.347686
-6332.753925
-6345.066402
-6302.253981
-6329.378931
-6348.691395
-6337.003917
-6305.910224
-6285.629012
-6282.222768
-6296.972741
-6330.035180
-6312.035213
-6279.191524
-6300.910233
-6306.722723
-6305.441475
-6331.347677
-6355.316383
-6319.003950
-6281.941518
-6304.878976
-6322.472694
-6308.128970
-6315.628956
-6336.628917
-6352.285139
-6344.816402
-6309.066468
-6285.379012
-6305.941474
-6300.347734
-6275.066531
-6278.972774
-6287.785258
-6280.629021
-6266.941546
-6253.191572
-6267.285296
-6287.660258
-6315.816456
-6302.816480
-6246.535334
-6265.316549
-6281.722769
-6286.004011
-6301.722732
-6320.785197
-6318.285201
-6277.941526
-6255.785317
-6281.566519
-6312.222713
-6333.847673
-6324.097691
-6306.097724
-6279.816522
-6257.129064
-6277.160277
-6276.597778
-6277.379027
-6288.441506
-6315.785206
-6338.816413
-6370.628855
-6343.503905
-6313.847710
-6345.941400
-6346.160150
-6286.504010
-6257.097814
-6283.160266
-6273.316534
-6276.129029
-6305.003976
-6301.035233
-6284.004015
-6286.035261
-6328.472683
-6324.035191
-6286.629010
-6284.597764
-6276.441529
-6280.379021
-6303.441479
-6317.660202
-6320.160198
-6310.472716
-6297.941489
-6284.222764
-6284.785263
-6285.941511
-6287.129009
-6294.941494
-6283.535266
-6263.254053
-6257.879063
-6288.722756
-6294.191496
-6290.504003
-6269.129042
-6254.441569
-6278.504025
-6285.754011
-6309.535217
-6323.347692
-6290.004004
-6286.129011
-6297.535240
-6288.097757
-6283.254016
-6304.722726
-6300.972733
-6310.597716
-6309.566467
-6253.910320
-6237.816600
-6262.660304
-6293.941496
-6288.254007
-6281.535269
-6309.316468
-6316.660204
-6313.691460
-6290.847752
-6258.910311
-6261.316557
-6282.941517
-6275.160281
-6272.004037
-6262.410305
-6245.941585
-6253.004072
-6262.472804
-6266.535297
-6260.285308
-6247.566582
-6233.004109
-6222.910378
-6226.879120
-6220.847881
-6243.597839
-6271.097789
-6282.597767
-6264.629050
-6265.191549
-6294.222746
-6284.754013
-6290.441503
-6305.253975
-6275.066531
-6278.754024
-6299.003987
-6254.379069
-6223.254127
-6242.160342
-6244.191588
-6239.254097
-6237.254101
-6208.566654
-6212.441647
-6245.816585
-6256.004066
-6274.972781
-6276.691528
-6244.160338
-6246.816583
-6245.660336
-6229.972865
-6238.066600
-6232.629110
-6220.941631
-6219.097885
-6229.066616
-6239.504097
-6234.504106
-6210.097901
-6233.441608
-6266.566547
-6261.254057
-6219.191634
-6217.816637
-6262.097805
-6276.472779
-6250.035327
-6217.816637
-6242.254092
-6254.066570
-6255.191568
-6273.035285
-6289.066505
-6287.441508
-6268.847793
-6251.535325
-6240.597845
-6278.847774
-6281.660269
-6235.597854
-6231.597862
-6242.785341
-6261.910305
-6233.254108
-6231.972861
-6280.035272
-6311.378964
-6303.378979
-6286.691510
-6284.504014
-6285.066513
-6285.066513
-6281.254020
-6295.441494
-6305.503975
-6281.785269
-6247.316582
-6242.191592
-6270.597789
-6272.785285
-6250.316577
-6236.722852
-6259.660310
-6271.941537
-6285.629012
-6278.597775
-6293.191498
-6307.878971
-6297.097740
-6305.378975
-6333.285174
-6319.535199
-6282.941517
-6291.629001
-6303.191479
-6309.722717
-6312.691462
-6289.941504
-6282.785267
-6308.941469
-6289.722754
-6248.410330
-6241.191594
-6276.504029
-6278.597775
-6280.691521
-6288.472756
-6307.597721
-6316.191455
-6287.691508
-6290.504003
-6295.847743
-6314.253959
-6335.066420
-6324.441440
-6306.503973
-6304.628977
-6289.972754
-6304.722726
-6324.785189
-6294.503995
-6272.597786
-6285.691512
-6288.660256
-6285.066513
-6313.878959
-6322.660193
-6305.285225
-6301.660232
-6324.066441
-6308.847719
-6280.160272
-6266.222798
-6279.379023
-6299.003987
-6283.816515
-6271.785287
-6279.410273
-6283.222766
-6293.410247
-6309.722717
-6288.535256
-6262.097805
-6274.566532
-6298.285238
-6278.004026
-6291.660251
-6316.878954
-6333.378923
-6316.910204
-6300.285235
-6325.910187
-6340.316411
-6343.503905
-6341.816408
-6316.378955
-6293.785247
-6307.285222
-6336.472668
-6344.003904
-6323.566442
-6285.191512
-6298.128989
-6305.253975
-6293.128998
-6297.472740
-6300.410234
-6320.160198
-6328.722682
-6350.441392
-6354.160135
-6335.753919
-6314.566458
-6303.285229
-6321.816445
-6338.441414
-6322.160194
-6289.347755
-6293.503997
-6285.972761
-6291.722750
-6287.441508
-6260.129059
-6269.222792
-6286.754010
-6286.379010
-6285.754011
-6305.941474
-6316.691454
-6329.472681
-6359.441375
-6370.722604
-6329.753930
-6309.847717
-6328.097683
-6292.785248
-6274.785282
-6296.035242
-6304.597727
-6313.285211
-6293.972746
-6295.878993
-6280.129022
-6270.941539
-6310.253966
-6332.035176
-6303.597728
-6243.316590
-6239.097848
-6266.254047
-6304.003978
-6329.378931
-6327.472684
-6351.972639
-6353.378886
-6352.910137
-6329.722680
-6300.191485
-6295.972743
-6338.410164
-6350.128892
-6335.753919
-6339.847661
-6281.066520
-6268.879043
-6286.160261
-6306.160224
-6292.472749
-6278.129026
-6293.753997
-6303.628978
-6290.597752
-6278.097776
-6308.285220
-6351.628890
-6378.785090
-6344.910152
-6283.410266
-6245.410336
-6262.879054
-6314.941458
-6317.410203
-6298.660238
-6304.503977
-6287.629008
-6244.222838
-6261.379056
-6300.878983
-6298.878987
-6325.316438
-6331.691427
-6320.035198
-6316.441455
-6315.441457
-6336.753917
-6324.941439
-6296.660241
-6276.191529
-6300.441484
-6322.472694
-6328.222683
-6307.285222
-6317.691452
-6303.160229
-6267.160296
-6271.691537
-6261.566556
-6267.722795
-6289.535254
-6283.254016
-6309.785217
-6300.160235
-6247.066583
-6232.066611
-6300.347734
-6353.222637
-6320.378947
-6281.597769
-6267.035296
-6269.254042
-6280.691521
-6250.754076
-6238.410349
-6275.160281
-6303.097729
-6278.535275
-6279.379023
-6284.785263
-6271.254038
-6263.129053
-6265.472799
-6288.316507
-6293.160248
-6279.097774
-6297.910239
-6295.597743
-6282.504017
-6311.816463
-6324.066441
-6328.816432
-6309.128968
-6301.535232
-6273.941533
-6259.066561
-6271.254038
-6251.285325
-6243.785339
-6299.441486
-6317.097704
-6267.066546
-6244.191588
-6242.441591
-6275.754030
-6317.816452
-6294.097746
-6287.816508
-6308.941469
-6326.003937
-6319.191450
-6292.597749
-6279.066524
-6268.472793
-6275.597780
-6307.285222
-6310.941465
-6255.379068
-6230.879113
-6251.629074
-6294.660245
-6295.097744
-6319.003950
-6355.785132
-6340.628910
-6315.003957
-6280.535271
-6270.566540
-6309.878967
-6366.191363
-6370.347605
-6335.222670
-6319.910198
-6304.285227
-6258.722811
-6269.035292
-6293.128998
-6331.378927
-6321.691445
-6300.535234
-6291.504001
-6270.191540
-6288.785256
-6287.504008
-6263.879052
-6260.597808
-6279.535273
-6304.566477
-6333.003924
-6360.972622
-6370.003856
-6326.472686
-6275.535280
-6260.910307
-6268.722793
-6299.503986
-6316.253955
-6327.222685
-6296.628991
-6278.129026
-6313.691460
-6343.972654
-6325.847687
-6308.472719
-6325.128939
-6302.441481
-6313.910209
-6310.410216
-6289.785254
-6288.660256
-6312.347712
-6345.878900
-6346.316400
-6323.378942
-6272.285286
-6287.379008
-6332.378925
-6355.660132
-6328.535182
-6283.972765
-6283.191516
-6268.722793
-6286.879009
-6320.222698
-6338.847663
-6319.566449
-6336.628917
-6374.753847
-6339.941411
-6323.878941
-6306.910222
-6318.285201
-6373.347600
-6373.472599
-6354.378885
-6338.441414
-6325.316438
-6312.066463
-6270.410290
-6290.754002
-6345.472651
-6366.816362
-6327.347685
-6287.379008
-6263.535302
-6261.504056
-6315.191457
-6326.941435
-6310.878965
-6320.597697
-6321.410196
-6298.347738
-6291.472751
-6297.722739
-6320.941446
-6354.347635
-6327.472684
-6294.003996
-6257.754063
-6249.566578
-6247.566582
-6245.129087
-6255.847817
-6270.972789
-6268.660293
-6278.129026
-6288.191507
-6292.816498
-6287.035259
-6336.753917
-6335.066420
-6273.129035
-6242.879091
-6267.816545
-6300.316485
-6288.660256
-6307.128972
-6311.597714
-6320.878947
-6355.847632
-6381.191335
-6390.816317
-6416.003771
-6415.472522
-6360.191374
-6338.253914
-6379.566338
-6406.066289
-6424.941254
-6424.222506
-6391.066317
-6385.785077
-6388.378822
-6408.785034
-6396.972556
-6363.441368
-6328.847682
-6325.035189
-6358.378877
-6326.128937
-6293.691497
-6290.691502
-6307.378971
-6315.503956
-6337.066417
-6336.753917
-6331.566427
-6330.628929
-6343.035156
-6380.597586
-6355.347633
-6311.378964
-6346.160150
-6342.878906
-6322.128944
-6319.378949
-6340.753910
-6314.285209
-6309.191468
-6288.660256
-6301.785232
-6313.128961
-6311.660214
-6298.910237
-6267.066546
-6250.566576
-6264.191551
-6295.691493
-6320.378947
-6318.097702
-6292.316499
-6300.253985
-6330.222679
-6329.035181
-6312.410212
-6307.128972
-6346.410149
-6361.785121
-6359.316376
-6347.628897
-6324.316440
-6314.191459
-6311.160214
-6312.160213
-6304.441477
-6326.316436
-6325.847687
-6311.441464
-6333.566423
-6355.503883
-6352.816388
-6341.035159
-6335.816419
-6329.878930
-6335.628919
-6330.128929
-6340.097661
-6342.503907
-6317.222703
-6306.222724
-6331.691427
-6340.597660
-6317.941452
-6299.097737
-6311.566464
-6313.347710
-6332.128926
-6330.597679
-6349.035145
-6352.003889
-6305.410225
-6270.472790
-6290.379003
-6336.503918
-6326.597686
-6297.566490
-6297.972739
-6319.378949
-6308.628969
-6295.535243
-6271.160288
-6278.285275
-6305.941474
-6271.222788
-6261.504056
-6268.722793
-6269.785291
-6259.597810
-6281.285270
-6296.472742
-6283.754015
-6285.129013
-6291.254001
-6284.129014
-6298.691488
-6317.253953
-6319.753949
-6283.972765
-6280.316521
-6304.378977
-6296.503992
-6296.972741
-6320.472697
-6316.441455
-6290.379003
-6306.660223
-6322.941443
-6296.691491
-6289.754004
-6322.285194
-6317.222703
-6330.472679
-6314.410208
-6285.629012
-6294.660245
-6302.191481
-6302.347731
-6331.285177
-6339.972661
-6308.253970
-6294.660245
-6291.316501
-6309.253968
-6345.847650
-6350.503892
-6369.191357
-6366.753862
-6340.191411
-6317.285203
-6324.097691
-6305.847724
-6322.035194
-6334.722671
-6315.691456
-6324.472690
-6330.035180
-6336.597667
-6341.097659
-6312.941461
-6296.972741
-6299.691486
-6301.035233
-6305.816474
-6328.378933
-6319.316449
-6312.910211
-6340.972659
-6330.191429
-6302.003981
-6308.316470
-6307.191472
-6303.066479
-6326.535186
-6310.941465
-6304.378977
-6318.347701
-6319.035200
-6310.378966
-6279.847772
-6280.535271
-6285.410262
-6275.597780
-6272.097787
-6256.472816
-6247.785332
-6244.816587
-6222.722878
-6212.222897
-6222.504128
-6232.691609
-6257.285314
-6265.722798
-6268.191544
-6269.785291
-6251.629074
-6231.535362
-6256.847815
-6273.222785
-6278.347775
-6278.629025
-6290.254003
-6317.878952
-6274.535282
-6208.191655
-6224.691624
-6258.722811
-6272.785285
-6257.754063
-6236.066603
-6228.910366
-6221.566630
-6226.660371
-6253.347821
-6271.222788
-6240.254096
-6238.472849
-6266.722797
-6254.035320
-6248.972829
-6262.535304
-6282.191518
-6247.097833
-6223.347877
-6222.660378
-6233.847857
-6245.410336
-6224.691624
-6231.316612
-6245.691585
-6218.941635
-6193.004183
-6232.504110
-6256.879065
-6246.847833
-6249.441579
-6264.379051
-6264.941550
-6235.441604
-6223.722876
-6229.566615
-6228.097868
-6236.129103
-6237.285351
-6239.097848
-6247.191583
-6271.160288
-6258.129062
-6245.566586
-6246.441584
-6238.097849
-6255.410318
-6253.441571
-6238.597849
-6254.066570
-6290.254003
-6289.129005
-6302.910230
-6324.410190
-6332.285175
-6325.722688
-6310.972715
-6294.378996
-6294.535245
-6303.128979
-6310.097716
-6307.785221
-6303.410229
-6266.785296
-6238.879098
-6261.160307
-6278.410275
-6280.285272
-6277.722776
-6282.035268
-6290.035254
-6292.535249
-6292.097750
-6313.628960
-6316.003956
-6318.191452
-6311.660214
-6308.128970
-6315.503956
-6287.535258
-6256.754065
-6252.535323
-6294.878995
-6293.753997
-6261.879056
-6276.816528
-6284.285264
-6264.597801
-6267.504045
-6296.035242
-6291.316501
-6286.004011
-6276.816528
-6287.535258
-6303.378979
-6290.504003
-6289.379005
-6313.816460
-6350.660142
-6362.972619
-6318.785200
-6270.754039
-6256.722815
-6296.035242
-6305.035226
-6277.972776
-6256.066566
-6256.472816
-6272.941535
-6303.128979
-6306.160224
-6323.753941
-6352.941387
-6350.535142
-6327.316435
-6309.847717
-6332.816424
-6345.785151
-6331.410177
-6334.785171
-6341.722658
-6341.472658
-6301.378983
-6307.628971
-6313.972709
-6298.035239
-6316.160205
-6315.097707
-6286.879009
-6261.285307
-6290.535253
-6337.597666
-6344.628903
-6328.285183
-6313.910209
-6326.910185
-6355.191383
-6350.878891
-6331.378927
-6295.128994
-6269.722791
-6289.910254
-6307.066472
-6314.535208
-6318.097702
-6278.910274
-6262.910304
-6266.504047
-6264.379051
-6262.660304
-6289.504005
-6327.160185
-6335.722669
-6323.847691
-6297.097740
-6276.972778
-6290.097753
-6304.066478
-6305.910224
-6305.660225
-6297.785239
-6278.222775
-6287.097759
-6287.785258
-6299.160237
-6300.691484
-6298.785237
-6298.378988
-6323.910191
-6298.410238
-6263.285303
-6270.254040
-6315.253957
-6321.691445
-6281.379020
-6266.129048
-6290.816502
-6298.535238
-6309.472718
-6320.566447
-6326.785186
-6318.597701
-6319.191450
-6311.628964
-6304.128977
-6302.816480
-6293.472747
-6260.722808
-6300.535234
-6362.910119
-6373.878849
-6332.535175
-6296.878991
-6299.660236
-6311.816463
-6292.066500
-6317.191453
-6343.222655
-6338.410164
-6316.128955
-6284.629014
-6287.160259
-6284.816513
-6269.597791
-6270.410290
-6275.097781
-6261.754056
-6258.566562
-6264.285301
-6245.566586
-6261.066557
-6291.504001
-6316.753954
-6325.503938
-6323.410192
-6348.035146
-6344.472653
-6319.472699
-6311.628964
-6306.066474
-6298.972737
-6289.535254
-6286.472760
-6285.785261
-6297.222740
-6292.722749
-6303.535229
-6297.910239
-6276.754028
-6276.441529
-6291.097752
-6315.472707
-6326.347686
-6282.504017
-6284.254014
-6305.503975
-6322.285194
-6322.785193
-6331.410177
-6319.378949
-6305.847724
-6311.878963
-6311.878963
-6294.160246
-6302.253981
-6295.535243
-6276.441529
-6290.129003
-6304.035228
-6318.253951
-6321.972695
-6304.941476
-6279.597773
-6285.879011
-6297.347740
-6302.597730
-6284.441514
-6269.504041
-6294.410245
-6318.316451
-6323.847691
-6312.691462
-6312.785211
-6309.222718
-6311.972713
-6291.472751
-6261.191557
-6281.129020
-6285.910261
-6277.316527
-6305.847724
-6315.097707
-6305.285225
-6304.597727
-6310.066467
-6325.941437
-6323.722691
-6282.597767
-6291.660251
-6293.941496
-6294.410245
-6309.847717
-6314.597708
-6328.910182
-6320.160198
-6286.660260
-6265.504049
-6290.816502
-6282.347768
-6290.160253
-6317.066454
-6313.722710
-6295.253994
-6282.097768
-6282.222768
-6286.441510
-6303.035230
-6320.628947
-6313.003961
-6298.910237
-6285.254012
-6304.441477
-6307.628971
-6307.410221
-6292.004000
-6289.660254
-6299.660236
-6307.347722
-6313.691460
-6297.785239
-6258.566562
-6256.566565
-6287.535258
-6293.816497
-6307.316472
-6315.378957
-6288.066507
-6295.128994
-6287.004009
-6308.128970
-6316.253955
-6300.847734
-6299.597736
-6305.660225
-6315.472707
-6309.253968
-6291.066502
-6291.285251
-6308.941469
-6305.722725
-6271.847787
-6256.816565
-6257.597813
-6265.629049
-6269.066542
-6281.254020
-6322.097694
-6360.097624
-6346.316400
-6314.722708
-6318.535201
-6311.660214
-6302.785230
-6307.597721
-6314.191459
-6314.597708
-6310.253966
-6283.222766
-6285.316512
-6297.128990
-6307.253972
-6304.378977
-6312.128963
-6294.191496
-6281.629019
-6295.597743
-6300.285235
-6309.347718
-6316.191455
-6304.972726
-6334.003922
-6337.941415
-6317.535203
-6329.285181
-6348.285146
-6312.472712
-6276.879028
-6274.691532
-6264.504051
-6249.754078
-6247.879081
-6263.629052
-6272.160287
-6265.504049
-6283.941515
-6304.972726
-6331.878926
-6358.816376
-6372.847601
-6346.316400
-6296.941491
-6280.691521
-6286.254011
-6296.035242
-6296.035242
-6300.316485
-6314.847708
-6312.660212
-6285.847761
-6265.129050
-6293.410247
-6306.941472
-6303.753978
-6303.691478
-6286.941509
-6277.847776
-6290.347753
-6297.535240
-6291.097752
-6306.285224
-6304.722726
-6313.097711
-6319.660199
-6312.847711
-6313.316461
-6320.472697
-6332.410175
-6318.597701
-6296.691491
-6277.754026
-6281.597769
-6293.472747
-6283.441516
-6264.316551
-6261.535306
-6260.722808
-6264.379051
-6302.222731
-6329.941430
-6333.691423
-6310.003967
-6310.003967
-6331.503927
-6321.441445
-6291.504001
-6282.441518
-6283.597765
-6272.035287
-6264.816550
-6254.441569
-6237.910350
-6239.004098
-6244.910337
-6245.754085
-6255.441567
-6251.379075
-6231.410362
-6241.191594
-6263.191553
-6289.035255
-6311.503964
-6281.004020
-6271.691537
-6294.878995
-6303.660228
-6297.503990
-6303.253979
-6310.035217
-6320.347698
-6328.066433
-6333.097674
-6367.753860
-6403.878793
-6404.160043
-6403.910043
-6400.816299
-6391.285066
-6382.097583
-6402.847545
-6414.660023
-6419.691264
-6379.316339
-6371.285103
-6384.722579
-6370.003856
-6375.097596
-6363.222618
-6358.972626
-6357.222629
-6343.910154
-6314.503958
-6299.503986
-6286.191511
-6270.535290
-6283.879015
-6302.660230
-6289.629004
-6287.191509
-6305.785224
-6305.253975
-6319.566449
-6357.785128
-6355.222633
-6322.441444
-6289.660254
-6295.910243
-6296.035242
-6266.035298
-6288.597756
-6306.660223
-6296.597741
-6324.035191
-6352.597638
-6330.941428
-6287.722758
-6264.785300
-6255.347818
-6254.535319
-6250.816576
-6271.785287
-6300.316485
-6313.347710
-6303.191479
-6297.410240
-6314.628958
-6333.691423
-6336.097668
-6312.910211
-6306.410223
-6298.847737
-6300.253985
-6312.253962
-6319.753949
-6329.128931
-6298.160239
-6285.441512
-6290.847752
-6311.972713
-6335.066420
-6312.628962
-6301.128983
-6321.503945
-6337.816415
-6312.035213
-6340.972659
-6363.535118
-6351.972639
-6340.847660
-6324.128941
-6308.566469
-6289.097755
-6277.347777
-6262.941554
-6279.566523
-6295.316494
-6284.347764
-6290.160253
-6317.566453
-6360.222624
-6336.910167
-6311.535214
-6306.066474
-6302.378981
-6304.003978
-6319.222700
-6328.535182
-6324.785189
-6313.347710
-6323.597692
-6315.691456
-6284.129014
-6262.316555
-6247.004083
-6221.160381
-6236.566602
-6251.941574
-6260.191559
-6266.285297
-6288.160257
-6315.878956
-6316.691454
-6313.878959
-6288.191507
-6272.129037
-6284.254014
-6299.753986
-6320.722697
-6316.566455
-6319.410199
-6323.003943
-6331.441427
-6322.847693
-6307.441471
-6276.379029
-6235.972853
-6245.035337
-6280.754021
-6294.066496
-6275.941530
-6296.410242
-6321.566445
-6315.222707
-6303.566479
-6310.472716
-6330.253929
-6307.191472
-6304.347727
-6321.472695
-6322.597693
-6316.285205
-6316.160205
-6300.972733
-6297.722739
-6283.660265
-6275.160281
-6272.910285
-6273.785284
-6280.629021
-6286.285260
-6286.191511
-6284.129014
-6283.066516
-6286.222761
-6307.535221
-6327.722684
-6305.410225
-6314.941458
-6354.628884
-6368.285109
-6363.535118
-6336.253918
-6315.097707
-6331.222677
-6324.441440
-6298.003989
-6278.285275
-6260.566558
-6247.566582
-6259.004061
-6271.972787
-6280.347771
-6276.316529
-6280.816521
-6267.097796
-6260.691558
-6277.910276
-6294.816495
-6313.847710
-6292.222749
-6280.722771
-6268.347794
-6256.160316
-6262.035305
-6262.629054
-6258.629062
-6256.879065
-6276.160279
-6258.347812
-6215.535391
-6223.660376
-6224.472875
-6242.097842
-6268.379044
-6280.347771
-6266.254047
-6256.316566
-6257.941563
-6269.191542
-6292.941498
-6317.472703
-6296.597741
-6241.191594
-6249.222829
-6264.347801
-6237.847850
-6218.097886
-6233.222859
-6255.066568
-6247.222833
-6247.879081
-6244.316588
-6235.504104
-6238.191599
-6254.504069
-6282.629017
-6282.816517
-6260.597808
-6259.504060
-6278.347775
-6286.722760
-6294.160246
-6290.347753
-6269.410292
-6244.879087
-6240.535345
-6255.410318
-6250.316577
-6246.722834
-6241.254094
-6223.160377
-6222.722878
-6250.785326
-6278.941524
-6280.222772
-6286.879009
-6275.941530
-6275.629030
-6278.597775
-6276.410279
-6276.191529
-6270.410290
-6275.035281
-6282.597767
-6301.128983
-6317.035204
-6316.878954
-6294.316496
-6251.629074
-6236.597852
-6235.816604
-6252.222823
-6275.222781
-6303.910228
-6312.847711
-6300.003985
-6283.879015
-6279.004024
-6267.847795
-6271.972787
-6286.441510
-6311.410214
-6345.347651
-6328.785182
-6284.754013
-6270.066540
-6266.691547
-6247.785332
-6232.660360
-6236.785352
-6238.754098
-6255.816567
-6274.691532
-6259.129061
-6259.754059
-6284.191514
-6313.535210
-6330.253929
-6326.472686
-6324.722689
-6315.660206
-6299.003987
-6277.566527
-6312.441462
-6316.160205
-6310.035217
-6302.691480
-6279.941522
-6288.847756
-6302.660230
-6288.754006
-6270.160290
-6270.535290
-6279.472773
-6278.504025
-6276.129029
-6285.629012
-6293.941496
-6307.878971
-6315.441457
-6317.066454
-6334.035172
-6325.035189
-6312.410212
-6298.503988
-6292.816498
-6305.910224
-6315.753956
-6318.003952
-6300.410234
-6278.597775
-6266.722797
-6267.941544
-6266.816546
-6264.879050
-6282.785267
-6297.878989
-6307.410221
-6298.253988
-6297.878989
-6323.378942
-6355.878882
-6334.597671
-6313.441460
-6319.097700
-6336.972667
-6347.097648
-6322.066444
-6301.597732
-6287.691508
-6289.535254
-6300.347734
-6298.503988
-6314.816458
-6301.566482
-6301.535232
-6321.847695
-6352.878887
-6361.597621
-6357.222629
-6332.628925
-6310.066467
-6331.066428
-6343.066406
-6339.066413
-6326.972685
-6323.628941
-6321.316446
-6324.535190
-6339.191413
-6340.285161
-6343.597655
-6306.066474
-6279.472773
-6289.754004
-6334.160172
-6356.003882
-6337.410166
-6322.847693
-6315.222707
-6314.347709
-6300.816484
-6303.660228
-6320.941446
-6322.941443
-6332.160176
-6327.535184
-6327.316435
-6329.941430
-6330.816428
-6326.191437
-6324.972689
-6297.285240
-6271.035289
-6285.035263
-6308.503969
-6291.004002
-6276.160279
-6302.566480
-6327.347685
-6341.441409
-6336.097668
-6329.535181
-6321.566445
-6311.253964
-6322.628943
-6333.410173
-6335.285170
-6313.316461
-6296.097742
-6300.128985
-6303.660228
-6314.597708
-6296.910241
-6298.722737
-6326.847686
-6330.566429
-6318.285201
-6295.378994
-6293.035248
-6312.035213
-6328.660182
-6331.691427
-6345.066402
-6360.222624
-6334.097672
-6316.503955
-6308.097720
-6329.410181
-6346.816399
-6330.410179
-6309.441468
-6311.503964
-6294.691495
-6269.504041
-6277.129027
-6289.535254
-6305.660225
-6295.441494
-6301.753982
-6329.910180
-6326.503936
-6303.941478
-6296.441492
-6322.847693
-6332.941424
-6351.441390
-6344.847652
-6326.878935
-6314.691458
-6301.535232
-6295.816493
-6315.566456
-6364.535116
-6353.160137
-6298.378988
-6257.629063
-6262.504054
-6276.222779
-6284.910263
-6302.066481
-6320.910196
-6305.628975
-6281.347770
-6292.222749
-6324.316440
-6329.660180
-6323.441442
-6307.222722
-6332.535175
-6351.410140
-6342.066407
-6308.347720
-6296.847741
-6310.160216
-6298.191488
-6289.004005
-6292.628999
-6297.472740
-6294.878995
-6286.566510
-6292.753999
-6305.660225
-6294.816495
-6289.410255
-6324.910189
-6338.535164
-6342.722656
-6347.660147
-6333.535173
-6308.097720
-6294.191496
-6304.128977
-6319.535199
-6315.628956
-6294.253996
-6302.160231
-6296.316492
-6292.004000
-6312.628962
-6319.003950
-6327.566434
-6326.066437
-6311.785213
-6291.972750
-6312.410212
-6339.691412
-6335.722669
-6319.691449
-6329.660180
-6326.097687
-6291.972750
-6294.722745
-6303.035230
-6304.003978
-6292.816498
-6264.004052
-6287.472758
-6286.722760
-6285.129013
-6301.816482
-6304.347727
-6306.722723
-6332.160176
-6341.566408
-6347.847647
-6368.441359
-6375.003847
-6355.597632
-6338.785163
-6316.847704
-6308.628969
-6291.785250
-6278.535275
-6291.004002
-6332.660175
-6316.347705
-6275.785280
-6257.816563
-6257.629063
-6276.785278
-6276.222779
-6305.972724
-6333.160174
-6338.035165
-6335.878919
-6341.191409
-6360.191374
-6360.660123
-6366.472612
-6350.097643
-6311.316464
-6284.347764
-6287.691508
-6289.660254
-6299.628986
-6298.816487
-6274.504032
-6279.566523
-6285.504012
-6257.191564
-6255.691567
-6298.910237
-6316.160205
-6332.597675
-6311.347714
-6282.004018
-6285.285262
-6287.691508
-6283.816515
-6272.879035
-6286.285260
-6298.597738
-6296.191492
-6301.003983
-6281.254020
-6269.941541
-6271.566538
-6265.285299
-6251.410325
-6247.847831
-6261.785306
-6255.097818
-6266.472797
-6281.285270
-6292.285249
-6282.441518
-6280.535271
-6282.722767
-6273.254035
-6289.972754
-6324.503940
-6329.347681
-6297.722739
-6263.566552
-6210.535400
-6213.254145
-6242.004092
-6228.722867
-6215.785391
-6226.097872
-6240.941594
-6253.847820
-6283.785265
-6291.816500
-6274.410282
-6270.191540
-6272.129037
-6282.816517
-6288.910256
-6280.191522
-6276.504029
-6272.910285
-6285.441512
-6292.628999
-6273.785284
-6269.066542
-6277.191527
-6256.441566
-6235.566604
-6246.597834
-6255.816567
-6247.566582
-6243.410340
-6256.566565
-6279.972772
-6299.253986
-6282.566517
-6266.566547
-6285.754011
-6295.441494
-6282.347768
-6248.160331
-6250.129077
-6270.410290
-6276.504029
-6261.566556
-6272.535286
-6290.097753
-6296.378992
-6280.097772
-6267.379045
-6274.160283
-6292.878998
-6285.004013
-6263.941552
-6279.504023
-6273.816533
-6262.066555
-6294.535245
-6288.597756
-6290.754002
-6302.816480
-6313.597710
-6309.441468
-6296.097742
-6284.847763
-6259.972809
-6269.754041
-6275.816530
-6263.847802
-6275.910280
-6292.316499
-6296.128992
-6292.972748
-6308.066470
-6316.285205
-6316.066455
-6318.191452
-6313.160211
-6314.097709
-6313.285211
-6302.160231
-6267.191546
-6254.879068
-6261.754056
-6272.472786
-6277.566527
-6275.785280
-6272.472786
-6247.566582
-6249.504078
-6281.410269
-6278.191525
-6248.597830
-6242.285342
-6233.222859
-6257.316564
-6249.410329
-6230.566613
-6240.160346
-6250.504077
-6246.972833
-6241.222844
-6229.941615
-6217.472888
-6207.972905
-6215.379141
-6217.410388
-6220.347882
-6201.129168
-6192.941683
-6205.972909
-6211.535399
-6251.785324
-6290.129003
-6310.160216
-6308.410220
-6324.441440
-6344.097654
-6358.597627
-6379.847588
-6376.191344
-6374.191348
-6377.378842
-6397.472555
-6383.128832
-6384.910078
-6387.660073
-6371.253853
-6368.878858
-6350.847641
-6346.660149
-6349.347644
-6330.660178
-6325.566438
-6329.285181
-6345.160152
-6348.941395
-6339.347662
-6315.285207
-6319.378949
-6339.816412
-6332.722675
-6324.628940
-6329.503931
-6342.035157
-6311.316464
-6286.191511
-6278.972774
-6285.879011
-6267.504045
-6258.504062
-6245.285336
-6247.847831
-6261.410306
-6262.347805
-6281.941518
-6294.253996
-6302.722730
-6293.722747
-6280.066522
-6292.035250
-6281.566519
-6287.441508
-6302.722730
-6320.035198
-6329.878930
-6303.597728
-6265.504049
-6266.316547
-6274.222783
-6274.191533
-6258.441562
-6240.597845
-6263.566552
-6276.816528
-6276.847778
-6281.472769
-6299.878985
-6303.128979
-6273.691534
-6259.754059
-6269.597791
-6276.941528
-6281.535269
-6285.847761
-6295.347744
-6289.066505
-6284.785263
-6299.316486
-6302.066481
-6263.597802
-6247.566582
-6264.566551
-6261.941555
-6262.160305
-6260.972807
-6267.441545
-6287.410258
-6291.597751
-6290.191503
-6286.191511
-6280.910270
-6282.566517
-6308.785219
-6304.316477
-6292.129000
-6275.879030
-6261.597806
-6279.066524
-6288.129007
-6281.847769
-6265.316549
-6266.597797
-6252.722822
-6256.816565
-6273.066535
-6282.410268
-6277.910276
-6274.847782
-6278.254025
-6267.347795
-6274.941531
-6290.535253
-6281.035270
-6280.347771
-6290.504003
-6309.566467
-6316.660204
-6316.035205
-6295.503993
-6276.222779
-6262.254055
-6260.160309
-6275.566530
-6277.504027
-6274.254033
-6287.004009
-6297.472740
-6295.316494
-6305.535225
-6301.097733
-6289.191505
-6304.128977
-6311.472714
-6313.160211
-6296.816491
-6295.910243
-6310.722715
-6312.378962
-6305.347725
-6294.347746
-6270.910289
-6245.441586
-6232.785359
-6244.879087
-6260.254059
-6256.847815
-6262.316555
-6282.347768
-6274.379032
-6267.410295
-6268.754043
-6280.441521
-6292.972748
-6286.972759
-6277.722776
-6265.222799
-6264.347801
-6267.910294
-6253.004072
-6248.691580
-6272.941535
-6272.566536
-6256.285316
-6255.316568
-6260.472808
-6260.035309
-6244.910337
-6247.847831
-6270.066540
-6282.722767
-6292.535249
-6282.785267
-6289.535254
-6297.941489
-6286.816509
-6278.379025
-6277.160277
-6265.035300
-6254.441569
-6260.191559
-6264.379051
-6278.097776
-6255.941567
-6227.066620
-6226.347871
-6238.097849
-6227.597869
-6204.629161
-6219.504134
-6240.035346
-6259.410310
-6268.722793
-6281.504019
-6302.628980
-6292.535249
-6259.160311
-6248.004081
-6259.504060
-6266.222798
-6261.316557
-6260.285308
-6263.316553
-6248.410330
-6240.129096
-6257.847813
-6245.472836
-6229.504115
-6239.160348
-6275.816530
-6280.379021
-6274.629032
-6257.785313
-6238.129099
-6244.191588
-6251.160325
-6254.754069
-6260.754058
-6266.191548
-6253.879070
-6261.660306
-6257.754063
-6256.785315
-6257.379064
-6231.941611
-6212.066648
-6208.785404
-6218.879135
-6226.472871
-6228.379117
-6226.222871
-6232.566610
-6255.566567
-6252.222823
-6253.660321
-6256.660315
-6264.785300
-6270.035290
-6258.222812
-6271.441538
-6277.691526
-6250.691576
-6221.972879
-6218.660385
-6221.629130
-6225.941622
-6244.910337
-6240.722845
-6229.629115
-6220.066633
-6243.160340
-6265.785298
-6270.285290
-6268.879043
-6256.410316
-6263.066553
-6275.535280
-6288.254007
-6281.754019
-6276.472779
-6259.035311
-6256.441566
-6263.097803
-6261.879056
-6251.222825
-6233.691608
-6219.285384
-6225.191623
-6243.879089
-6274.285283
-6286.941509
-6280.066522
-6276.191529
-6278.597775
-6267.504045
-6270.191540
-6265.097800
-6252.410323
-6268.191544
-6277.754026
-6270.410290
-6261.816556
-6267.441545
-6268.566543
-6267.597795
-6257.472814
-6266.566547
-6278.066526
-6268.879043
-6289.410255
-6291.566501
-6286.066511
-6292.191500
-6300.816484
-6290.660252
-6286.097761
-6299.660236
-6304.628977
-6319.035200
-6314.253959
-6296.316492
-6301.441482
-6295.160244
-6272.910285
-6264.347801
-6284.566514
-6289.254005
-6271.660287
-6269.097792
-6276.597778
-6272.847785
-6293.535247
-6311.972713
-6320.316448
-6354.941384
-6355.128883
-6333.378923
-6324.222690
-6315.316457
-6306.222724
-6291.910250
-6291.129002
-6287.566508
-6285.191512
-6274.254033
-6281.254020
-6284.535264
-6281.472769
-6287.816508
-6282.722767
-6296.847741
-6290.504003
-6300.191485
-6316.191455
-6322.816443
-6319.910198
-6311.097715
-6315.160207
-6308.066470
-6310.660215
-6312.160213
-6308.597719
-6303.472729
-6298.722737
-6295.035244
-6299.066487
-6306.816473
-6296.566491
-6280.941520
-6274.660282
-6279.254023
-6284.722763
-6281.285270
-6292.878998
-6292.004000
-6292.628999
-6294.035246
-6305.347725
-6304.628977
-6309.660217
-6330.160179
-6331.222677
-6312.722712
-6288.379007
-6280.410271
-6274.129033
-6288.816506
-6304.035228
-6292.847748
-6299.035237
-6289.347755
-6277.285277
-6289.379005
-6296.378992
-6314.503958
-6337.316416
-6332.816424
-6304.722726
-6306.191474
-6321.378946
-6321.441445
-6322.628943
-6306.503973
-6284.035265
-6280.597771
-6294.160246
-6295.128994
-6298.191488
-6295.285244
-6293.597747
-6301.128983
-6284.347764
-6269.222792
-6281.879019
-6296.972741
-6293.597747
-6311.191464
-6295.628993
-6284.972763
-6304.722726
-6313.128961
-6312.535212
-6313.972709
-6314.472708
-6300.566484
-6300.066485
-6280.472771
-6271.254038
-6284.472764
-6286.160261
-6285.441512
-6283.441516
-6286.160261
-6287.191509
-6288.191507
-6301.003983
-6321.660195
-6311.535214
-6299.503986
-6306.035224
-6301.410233
-6306.347723
-6307.972720
-6297.597740
-6290.347753
-6277.285277
-6268.941543
-6276.441529
-6294.472745
-6277.410277
-6270.972789
-6286.879009
-6289.191505
-6282.316518
-6287.504008
-6298.472738
-6295.878993
-6302.753980
-6301.378983
-6305.378975
-6309.191468
-6308.785219
-6308.785219
-6304.066478
-6313.285211
-6301.816482
-6282.629017
-6261.816556
-6262.535304
-6279.066524
-6273.160285
-6265.097800
-6275.347781
-6286.066511
-6286.785260
-6311.785213
-6325.253938
-6326.816436
-6320.535197
-6307.003972
-6310.503966
-6323.691441
-6321.472695
-6303.910228
-6300.191485
-6292.910248
-6292.753999
-6291.941500
-6286.847759
-6299.097737
-6294.660245
-6273.722784
-6265.066550
-6290.191503
-6307.097722
-6285.597762
-6280.660271
-6304.035228
-6304.628977
-6289.191505
-6292.253999
-6321.878945
-6335.785169
-6320.035198
-6305.097726
-6316.222705
-6302.785230
-6302.597730
-6309.472718
-6312.972711
-6294.753995
-6279.504023
-6280.535271
-6280.004022
-6303.191479
-6316.660204
-6319.753949
-6319.941448
-6308.566469
-6303.160229
-6311.941463
-6327.285185
-6308.097720
-6288.254007
-6292.785248
-6301.222733
-6295.503993
-6284.504014
-6296.441492
-6323.066442
-6345.597651
-6328.753932
-6312.972711
-6305.941474
-6285.222762
-6271.004039
-6261.254057
-6285.785261
-6294.160246
-6293.910246
-6286.191511
-6292.035250
-6291.504001
-6294.722745
-6302.878980
-6305.472725
-6304.910226
-6287.785258
-6282.566517
-6289.535254
-6307.441471
-6303.222729
-6286.879009
-6299.878985
-6274.066533
-6251.566575
-6267.410295
-6284.972763
-6279.222774
-6280.629021
-6284.129014
-6291.066502
-6303.035230
-6294.722745
-6275.816530
-6266.129048
-6257.097814
-6258.847811
-6270.410290
-6266.222798
-6260.972807
-6277.191527
-6267.691545
-6257.097814
-6250.816576
-6266.410297
-6288.347757
-6289.941504
-6278.285275
-6266.597797
-6275.066531
-6286.066511
-6291.254001
-6304.441477
-6314.722708
-6309.878967
-6295.191494
-6280.566521
-6275.504030
-6267.660295
-6258.504062
-6259.066561
-6257.535314
-6247.035333
-6257.035315
-6259.472810
-6259.472810
-6269.191542
-6294.972744
-6305.253975
-6292.222749
-6285.379012
-6296.816491
-6332.222676
-6333.410173
-6305.222725
-6277.847776
-6290.379003
-6299.160237
-6300.816484
-6300.035235
-6285.566512
-6292.816498
-6296.566491
-6301.503982
-6309.628967
-6278.160275
-6258.597812
-6269.785291
-6274.910281
-6284.160264
-6293.753997
-6283.191516
-6280.785271
-6304.472727
-6300.816484
-6285.941511
-6278.379025
-6295.566493
-6299.691486
-6275.660280
-6268.754043
-6276.191529
-6275.535280
-6263.910302
-6264.972800
-6256.472816
-6255.785317
-6273.441534
-6291.066502
-6294.160246
-6311.472714
-6307.910220
-6284.566514
-6285.441512
-6291.504001
-6318.160202
-6319.660199
-6313.128961
-6297.722739
-6280.691521
-6279.066524
-6280.222772
-6270.254040
-6271.066539
-6268.222794
-6266.379047
-6285.504012
-6289.879004
-6272.222786
-6283.504016
-6294.535245
-6304.441477
-6306.472723
-6305.441475
-6312.347712
-6323.628941
-6302.628980
-6265.347799
-6281.097770
-6290.722752
-6289.535254
-6273.660284
-6263.722802
-6263.222803
-6255.879067
-6251.347825
-6248.910330
-6259.972809
-6280.910270
-6297.660239
-6301.035233
-6295.035244
-6289.222755
-6274.660282
-6269.379042
-6263.254053
-6260.972807
-6258.629062
-6251.879074
-6232.629110
-6224.160375
-6221.785380
-6222.347879
-6227.754119
-6219.785383
-6205.754159
-6214.597893
-6219.222884
-6230.535363
-6228.472867
-6231.004113
-6221.941629
-6238.816598
-6237.379101
-6240.629095
-6271.816537
-6281.004020
-6275.535280
-6266.879046
-6289.941504
-6301.753982
-6305.191476
-6305.191476
-6326.941435
-6363.285118
-6364.597616
-6371.722603
-6366.035113
-6373.128850
-6395.597558
-6399.722551
-6393.378813
-6402.097546
-6404.316292
-6403.066295
-6404.160043
-6399.128802
-6404.816291
-6394.222561
-6377.128843
-6344.816402
-6311.253964
-6315.566456
-6309.316468
-6315.410207
-6307.035222
-6279.785272
-6273.441534
-6269.004042
-6276.379029
-6300.941483
-6318.066452
-6324.160190
-6322.253944
-6304.941476
-6304.566477
-6317.316453
-6302.691480
-6300.097735
-6288.972755
-6299.253986
-6315.316457
-6296.222742
-6271.222788
-6276.316529
-6292.004000
-6279.347773
-6271.160288
-6269.785291
-6280.254022
-6290.754002
-6295.410244
-6305.878974
-6312.722712
-6300.035235
-6278.691524
-6295.691493
-6302.253981
-6295.910243
-6307.535221
-6304.691476
-6282.347768
-6276.566528
-6275.847780
-6280.129022
-6298.410238
-6281.004020
-6277.722776
-6285.316512
-6285.566512
-6309.472718
-6303.347729
-6280.254022
-6287.191509
-6303.003980
-6303.160229
-6300.003985
-6309.066468
-6313.691460
-6307.847721
-6297.347740
-6299.347736
-6289.379005
-6300.441484
-6302.472731
-6299.660236
-6309.816467
-6284.004015
-6267.379045
-6279.066524
-6298.191488
-6295.347744
-6282.785267
-6290.597752
-6311.691464
-6312.316462
-6301.941482
-6306.910222
-6288.847756
-6277.191527
-6276.597778
-6280.410271
-6287.129009
-6287.285259
-6278.879024
-6265.660299
-6270.472790
-6281.285270
-6272.504036
-6272.160287
-6274.816532
-6281.004020
-6281.472769
-6285.097763
-6291.222751
-6305.347725
-6299.910235
-6303.160229
-6312.160213
-6301.722732
-6300.972733
-6300.847734
-6300.128985
-6291.722750
-6290.066503
-6291.566501
-6299.691486
-6300.722734
-6287.035259
-6289.785254
-6305.566475
-6317.566453
-6305.878974
-6277.379027
-6274.597782
-6282.097768
-6294.972744
-6281.535269
-6276.191529
-6289.879004
-6302.222731
-6287.566508
-6278.879024
-6283.129016
-6284.254014
-6265.879048
-6245.004087
-6261.535306
-6275.691530
-6273.597784
-6265.597799
-6257.347814
-6272.722786
-6280.160272
-6272.004037
-6262.972804
-6275.722780
-6282.316518
-6293.566497
-6305.003976
-6294.003996
-6289.722754
-6298.066489
-6309.816467
-6301.160233
-6289.629004
-6268.597793
-6241.722843
-6239.129098
-6240.629095
-6249.441579
-6256.691565
-6263.816552
-6254.066570
-6245.722835
-6246.410334
-6254.441569
-6260.566558
-6253.691571
-6275.691530
-6285.472762
-6271.441538
-6262.597804
-6253.660321
-6255.129068
-6251.566575
-6255.910317
-6256.035316
-6265.160299
-6251.879074
-6232.191610
-6237.504101
-6244.004089
-6258.441562
-6258.722811
-6252.285323
-6248.191581
-6255.222818
-6247.097833
-6239.191597
-6246.191585
-6245.472836
-6256.129066
-6267.097796
-6278.191525
-6259.879059
-6237.066601
-6237.910350
-6242.191592
-6234.472856
-6209.816652
-6194.754180
-6206.629158
-6223.879126
-6231.410362
-6229.254116
-6240.254096
-6244.785337
-6246.254084
-6243.754089
-6247.535332
-6249.254079
-6236.222853
-6215.566641
-6219.660384
-6227.691619
-6224.722874
-6203.347914
-6196.285427
-6213.410395
-6228.816617
-6218.191636
-6212.847896
-6209.629152
-6214.441643
-6217.566637
-6220.566632
-6227.254120
-6237.566600
-6238.004100
-6239.754096
-6248.691580
-6256.660315
-6259.316560
-6259.441560
-6250.629076
-6241.566593
-6241.722843
-6241.910342
-6238.660348
-6238.097849
-6227.254120
-6232.222860
-6224.160375
-6227.566619
-6248.379080
-6248.660330
-6252.535323
-6263.597802
-6275.691530
-6276.410279
-6285.379012
-6284.629014
-6271.004039
-6270.847789
-6265.847798
-6267.910294
-6270.785289
-6271.160288
-6266.629047
-6257.254064
-6249.504078
-6236.660352
-6251.004076
-6256.722815
-6258.660311
-6263.160303
-6288.566506
-6303.566479
-6299.003987
-6283.316516
-6270.785289
-6268.972792
-6268.785293
-6291.472751
-6301.253983
-6282.066518
-6257.597813
-6251.066576
-6257.129064
-6270.004041
-6290.316503
-6282.222768
-6274.722782
-6277.347777
-6274.441532
-6269.254042
-6263.785302
-6270.066540
-6280.160272
-6281.004020
-6266.410297
-6272.504036
-6280.629021
-6295.285244
-6297.660239
-6294.941494
-6284.910263
-6262.160305
-6257.754063
-6267.129046
-6278.254025
-6282.816517
-6278.222775
-6252.629073
-6241.535343
-6249.191579
-6261.879056
-6275.222781
-6286.285260
-6299.347736
-6288.816506
-6284.410264
-6296.722741
-6302.597730
-6314.785208
-6307.972720
-6298.066489
-6287.847758
-6291.504001
-6285.597762
-6284.535264
-6287.004009
-6265.097800
-6266.691547
-6297.035241
-6310.472716
-6295.753993
-6290.629002
-6294.347746
-6310.816465
-6316.472705
-6292.660249
-6293.066498
-6319.316449
-6334.472671
-6312.878961
-6289.660254
-6292.503999
-6293.753997
-6313.472710
-6292.253999
-6286.316510
-6291.191501
-6281.191520
-6284.129014
-6286.816509
-6284.097764
-6283.941515
-6277.847776
-6276.691528
-6299.003987
-6309.660217
-6301.003983
-6308.628969
-6314.503958
-6310.691465
-6296.535242
-6312.910211
-6309.191468
-6295.160244
-6281.410269
-6283.785265
-6290.972752
-6269.535291
-6259.754059
-6266.629047
-6273.379034
-6273.285284
-6261.910305
-6275.222781
-6296.941491
-6301.753982
-6289.254005
-6292.441499
-6302.910230
-6301.472732
-6297.191490
-6311.316464
-6312.722712
-6287.222759
-6275.004031
-6276.566528
-6286.097761
-6285.722761
-6268.629043
-6269.160292
-6266.941546
-6281.160270
-6277.910276
-6264.285301
-6267.035296
-6299.878985
-6311.660214
-6308.847719
-6321.722695
-6322.222694
-6324.410190
-6307.628971
-6297.785239
-6293.035248
-6292.410249
-6276.285279
-6262.316555
-6260.035309
-6243.691589
-6242.222842
-6254.191570
-6274.316533
-6294.347746
-6299.128987
-6288.160257
-6277.941526
-6285.316512
-6272.441536
-6280.754021
-6281.816519
-6262.785304
-6264.472801
-6277.160277
-6279.035274
-6284.004015
-6284.754013
-6270.504040
-6263.222803
-6261.785306
-6264.847800
-6271.879037
-6270.941539
-6272.191536
-6272.472786
-6284.660263
-6302.253981
-6315.691456
-6296.660241
-6296.722741
-6316.753954
-6320.472697
-6308.972719
-6287.254009
-6279.347773
-6277.004028
-6272.910285
-6272.410286
-6277.004028
-6283.097766
-6272.754035
-6264.754050
-6265.035300
-6257.035315
-6260.691558
-6291.879000
-6302.816480
-6305.941474
-6302.191481
-6277.847776
-6278.754024
-6301.128983
-6298.941487
-6297.878989
-6300.441484
-6285.379012
-6277.035278
-6284.597764
-6275.316531
-6280.379021
-6272.722786
-6246.972833
-6259.004061
-6276.222779
-6287.097759
-6292.035250
-6298.066489
-6302.628980
-6317.066454
-6315.066457
-6303.660228
-6311.660214
-6297.941489
-6296.660241
-6307.535221
-6312.160213
-6303.285229
-6282.754017
-6278.316525
-6282.629017
-6300.972733
-6301.503982
-6290.097753
-6280.629021
-6294.253996
-6292.722749
-6285.535262
-6282.504017
-6297.128990
-6296.660241
-6297.347740
-6295.378994
-6302.503980
-6286.816509
-6270.785289
-6268.191544
-6272.347786
-6272.441536
-6273.504034
-6267.972794
-6275.722780
-6278.441525
-6266.035298
-6281.097770
-6281.347770
-6250.035327
-6242.629091
-6274.004033
-6294.253996
-6291.535251
-6276.597778
-6289.191505
-6315.222707
-6310.378966
-6303.410229
-6276.129029
-6263.004053
-6274.816532
-6280.847771
-6282.097768
-6281.285270
-6286.879009
-6274.566532
-6268.004044
-6272.441536
-6281.347770
-6298.410238
-6303.910228
-6300.285235
-6307.066472
-6291.597751
-6272.004037
-6288.097757
-6282.910267
-6270.097790
-6278.441525
-6276.504029
-6271.691537
-6272.722786
-6250.097827
-6247.754082
-6273.472784
-6285.816511
-6255.129068
-6250.004077
-6247.941581
-6258.535312
-6266.285297
-6269.191542
-6273.691534
-6281.941518
-6263.191553
-6249.941578
-6274.285283
-6293.753997
-6282.722767
-6290.691502
-6288.285257
-6272.597786
-6263.566552
-6252.222823
-6253.566571
-6291.285251
-6292.253999
-6279.660273
-6271.066539
-6247.941581
-6248.191581
-6268.004044
-6287.129009
-6298.441488
-6298.910237
-6281.660269
-6286.379010
-6294.753995
-6284.347764
-6288.254007
-6291.754000
-6287.472758
-6284.316514
-6269.347792
-6255.597817
-6270.004041
-6281.660269
-6259.816559
-6264.535301
-6273.816533
-6280.629021
-6290.629002
-6299.753986
-6301.753982
-6304.878976
-6301.660232
-6290.504003
-6311.503964
-6310.191466
-6293.285248
-6291.347751
-6310.535216
-6314.316459
-6302.066481
-6285.785261
-6284.160264
-6298.910237
-6292.035250
-6280.754021
-6270.847789
-6270.879039
-6270.129040
-6271.097789
-6289.847754
-6295.597743
-6288.879006
-6271.910287
-6284.660263
-6311.753963
-6320.691447
-6320.253948
-6318.441451
-6323.035193
-6305.441475
-6299.816485
-6293.691497
-6301.316483
-6291.847750
-6260.972807
-6254.785319
-6264.410301
-6286.222761
-6288.410257
-6302.378981
-6328.847682
-6330.628929
-6297.910239
-6283.754015
-6288.254007
-6284.066515
-6280.347771
-6266.347797
-6260.129059
-6261.597806
-6255.941567
-6249.972828
-6260.785308
-6267.285296
-6249.504078
-6244.691587
-6245.035337
-6247.722832
-6242.097842
-6220.754132
-6215.285392
-6224.691624
-6237.566600
-6220.160383
-6222.316629
-6249.941578
-6247.066583
-6247.629082
-6237.691600
-6243.910339
-6249.910328
-6246.941583
-6236.441603
-6237.035351
-6236.972852
-6235.160355
-6253.285321
-6289.910254
-6325.410188
-6327.785184
-6335.472670
-6358.160128
-6387.222574
-6396.847556
-6398.035054
-6426.441251
-6424.128756
-6427.659999
-6441.659973
-6436.628733
-6426.816251
-6419.003765
-6419.316265
-6401.191298
-6386.785075
-6377.816341
-6367.660110
-6355.847632
-6348.941395
-6352.347638
-6359.472625
-6365.660114
-6371.066354
-6377.222592
-6353.410136
-6354.472634
-6356.816380
-6343.941404
-6351.691390
-6345.253901
-6348.066396
-6352.253889
-6354.785134
-6344.878902
-6330.660178
-6315.941456
-6308.160220
-6322.972693
-6325.378938
-6329.472681
-6334.597671
-6354.253885
-6359.410125
-6353.722636
-6342.816406
-6328.285183
-6331.753926
-6355.535132
-6371.785102
-6367.253861
-6353.066387
-6337.878915
-6334.285172
-6321.535195
-6324.691439
-6344.472653
-6347.597647
-6348.160146
-6337.941415
-6327.472684
-6333.222674
-6332.628925
-6338.753914
-6347.816397
-6358.972626
-6346.285150
-6341.972658
-6350.878891
-6355.441383
-6365.128865
-6360.128874
-6360.441373
-6358.441377
-6354.972634
-6350.847641
-6349.316394
-6332.753925
-6313.597710
-6303.285229
-6300.847734
-6311.191464
-6319.566449
-6340.878910
-6343.503905
-6338.660164
-6335.160170
-6329.066431
-6343.003906
-6342.785156
-6339.941411
-6343.503905
-6355.472633
-6352.910137
-6324.566440
-6306.722723
-6299.597736
-6311.347714
-6313.566460
-6296.035242
-6304.066478
-6324.722689
-6327.691434
-6322.160194
-6318.222701
-6322.285194
-6323.316442
-6309.785217
-6314.410208
-6321.128946
-6320.410197
-6325.691438
-6301.972731
-6296.753991
-6298.035239
-6306.285224
-6300.941483
-6297.035241
-6287.160259
-6269.941541
-6276.191529
-6265.004050
-6266.816546
-6280.347771
-6292.285249
-6296.722741
-6303.910228
-6300.785234
-6295.441494
-6313.972709
-6329.035181
-6343.535155
-6345.160152
-6335.535169
-6332.003926
-6330.628929
-6325.691438
-6319.597699
-6303.722728
-6278.535275
-6268.566543
-6264.816550
-6280.754021
-6298.691488
-6303.160229
-6299.035237
-6292.566499
-6291.129002
-6282.066518
-6287.972757
-6313.128961
-6314.878958
-6309.378968
-6289.441505
-6283.879015
-6279.660273
-6271.691537
-6262.035305
-6278.316525
-6286.660260
-6259.410310
-6247.660332
-6257.035315
-6276.535278
-6279.535273
-6292.972748
-6307.628971
-6302.160231
-6294.347746
-6286.629010
-6291.347751
-6282.910267
-6269.472792
-6270.660289
-6283.222766
-6284.660263
-6271.316538
-6262.941554
-6255.035318
-6265.160299
-6263.285303
-6249.035329
-6248.504080
-6262.097805
-6263.754052
-6262.004055
-6284.847763
-6290.066503
-6271.347788
-6252.785322
-6258.097813
-6281.785269
-6297.566490
-6293.597747
-6275.660280
-6267.472795
-6263.629052
-6257.191564
-6259.722810
-6252.597823
-6245.472836
-6231.629111
-6236.691602
-6247.035333
-6256.035316
-6245.004087
-6248.566580
-6262.035305
-6272.222786
-6280.910270
-6282.754017
-6272.160287
-6251.691574
-6253.785321
-6268.410293
-6278.347775
-6259.816559
-6233.347858
-6226.816620
-6234.035357
-6254.129070
-6246.472834
-6231.316612
-6235.285355
-6246.597834
-6243.785339
-6238.472849
-6250.629076
-6266.066548
-6275.472780
-6276.816528
-6258.629062
-6262.004055
-6262.222805
-6263.785302
-6262.316555
-6259.472810
-6251.879074
-6239.316597
-6222.285379
-6232.004111
-6243.722839
-6230.066614
-6243.785339
-6243.847839
-6239.847846
-6233.316608
-6239.316597
-6245.410336
-6253.004072
-6269.629041
-6257.410314
-6257.347814
-6268.754043
-6264.691550
-6252.722822
-6248.597830
-6251.347825
-6251.379075
-6242.191592
-6229.129116
-6231.004113
-6238.504099
-6228.410367
-6238.472849
-6254.410319
-6266.910296
-6269.660291
-6277.597777
-6286.097761
-6287.097759
-6276.222779
-6279.566523
-6296.910241
-6299.597736
-6307.441471
-6312.191463
-6320.597697
-6320.722697
-6290.285253
-6272.816535
-6288.535256
-6287.910257
-6267.035296
-6273.691534
-6279.316523
-6293.660247
-6305.191476
-6304.535227
-6314.816458
-6322.910193
-6317.597703
-6304.472727
-6307.347722
-6309.753967
-6315.910206
-6323.722691
-6317.160203
-6299.285236
-6287.660258
-6295.035244
-6301.003983
-6312.628962
-6286.910259
-6257.879063
-6265.754048
-6279.566523
-6287.972757
-6287.066509
-6292.785248
-6309.441468
-6320.691447
-6316.660204
-6304.285227
-6301.941482
-6311.003965
-6323.785191
-6326.191437
-6315.722706
-6293.066498
-6283.410266
-6279.660273
-6280.722771
-6290.066503
-6285.097763
-6292.785248
-6294.410245
-6297.878989
-6280.847771
-6273.566534
-6282.066518
-6303.097729
-6301.753982
-6293.597747
-6307.660221
-6311.910213
-6317.972702
-6320.191448
-6310.035217
-6303.878978
-6301.441482
-6274.160283
-6270.910289
-6289.035255
-6280.285272
-6280.535271
-6292.597749
-6283.910265
-6275.816530
-6276.722778
-6287.816508
-6304.066478
-6312.878961
-6299.035237
-6297.785239
-6312.910211
-6315.128957
-6316.910204
-6318.628951
-6311.628964
-6293.285248
-6294.535245
-6291.191501
-6290.472753
-6296.941491
-6290.472753
-6287.879008
-6282.879017
-6293.722747
-6306.160224
-6323.316442
-6317.847702
-6307.503971
-6306.253974
-6306.285224
-6307.191472
-6316.097705
-6315.785206
-6309.597717
-6309.597717
-6299.222737
-6290.254003
-6289.066505
-6298.753987
-6303.722728
-6272.379036
-6257.597813
-6257.847813
-6265.254049
-6273.254035
-6276.847778
-6286.629010
-6298.472738
-6300.003985
-6295.347744
-6288.691506
-6295.035244
-6308.941469
-6317.847702
-6315.222707
-6313.941459
-6302.972730
-6298.910237
-6283.816515
-6281.097770
