-86797
-86798
-86802
-86799
-86808
-86813
-86810
-86817
-86824
-86819
-86811
-86816
-86824
-86829
-86822
-86818
-86826
-86830
-86834
-86835
-86841
-86857
-86859
-86853
-86850
-86855
-86858
-86856
-86861
-86860
-86862
-86863
-86870
-86874
-86872
-86870
-86871
-86880
-86877
-86872
-86885
-86877
-86871
-86886
-86892
-86888
-86892
-86893
-86889
-86889
-86893
-86894
-86895
-86901
-86914
-86913
-86901
-86908
-86918
-86927
-86926
-86928
-86932
-86931
-86938
-86945
-86945
-86935
-86934
-86933
-86926
-86927
-86926
-86928
-86933
-86934
-86934
-86933
-86948
-86959
-86959
-86953
-86960
-86960
-86956
-86952
-86956
-86970
-86971
-86975
-86971
-86963
-86969
-86972
-86980
-86976
-86973
-86980
-86977
-86979
-86986
-86984
-86987
-86982
-86978
-86985
-86990
-87000
-87006
-86995
-86997
-86996
-86986
-86993
-86992
-86991
-86982
-86986
-86989
-86984
-86985
-86983
-86975
-86965
-86968
-86952
-86938
-86943
-86938
-86927
-86914
-86905
-86903
-86888
-86873
-86871
-86870
-86859
-86849
-86837
-86832
-86829
-86815
-86792
-86785
-86782
-86767
-86753
-86745
-86736
-86729
-86717
-86700
-86696
-86683
-86680
-86663
-86652
-86654
-86642
-86629
-86631
-86638
-86631
-86616
-86606
-86602
-86589
-86585
-86582
-86578
-86566
-86554
-86549
-86538
-86540
-86530
-86525
-86532
-86536
-86526
-86518
-86506
-86500
-86511
-86508
-86503
-86506
-86497
-86503
-86516
-86511
-86505
-86495
-86488
-86481
-86494
-86493
-86494
-86482
-86486
-86496
-86491
-86482
-86481
-86476
-86472
-86466
-86474
-86473
-86477
-86478
-86459
-86461
-86467
-86473
-86475
-86468
-86452
-86449
-86445
-86451
-86465
-86459
-86448
-86445
-86451
-86453
-86446
-86435
-86428
-86429
-86430
-86425
-86430
-86432
-86429
-86420
-86421
-86422
-86432
-86426
-86419
-86438
-86432
-86422
-86411
-86419
-86418
-86415
-86404
-86410
-86412
-86408
-86412
-86424
-86422
-86427
-86424
-86416
-86424
-86416
-86408
-86401
-86404
-86409
-86402
-86397
-86403
-86407
-86397
-86392
-86396
-86392
-86383
-86390
-86389
-86377
-86365
-86365
-86367
-86374
-86373
-86371
-86361
-86366
-86363
-86357
-86360
-86355
-86354
-86340
-86330
-86347
-86345
-86335
-86337
-86335
-86326
-86322
-86329
-86322
-86310
-86303
-86301
-86306
-86297
-86280
-86279
-86269
-86270
-86279
-86280
-86272
-86272
-86270
-86264
-86264
-86263
-86264
-86255
-86246
-86241
-86243
-86242
-86238
-86233
-86229
-86236
-86239
-86231
-86232
-86238
-86239
-86248
-86241
-86234
-86245
-86243
-86232
-86231
-86225
-86216
-86226
-86230
-86234
-86233
-86235
-86235
-86228
-86232
-86237
-86225
-86231
-86241
-86238
-86231
-86225
-86229
-86237
-86239
-86233
-86237
-86250
-86255
-86251
-86251
-86247
-86246
-86239
-86252
-86259
-86255
-86249
-86237
-86250
-86248
-86245
-86255
-86259
-86258
-86251
-86242
-86244
-86246
-86243
-86247
-86251
-86262
-86254
-86251
-86259
-86275
-86271
-86267
-86278
-86282
-86281
-86274
-86272
-86270
-86273
-86272
-86280
-86278
-86277
-86283
-86279
-86278
-86285
-86285
-86280
-86279
-86268
-86264
-86266
-86271
-86275
-86267
-86272
-86278
-86273
-86279
-86270
-86268
-86276
-86271
-86267
-86266
-86266
-86268
-86268
-86271
-86274
-86274
-86275
-86276
-86269
-86268
-86275
-86274
-86272
-86279
-86281
-86281
-86287
-86288
-86285
-86278
-86278
-86273
-86277
-86280
-86279
-86276
-86274
-86273
-86265
-86265
-86276
-86277
-86276
-86273
-86263
-86258
-86266
-86266
-86256
-86259
-86263
-86271
-86281
-86273
-86273
-86282
-86287
-86276
-86274
-86284
-86279
-86279
-86282
-86270
-86258
-86267
-86273
-86285
-86294
-86273
-86264
-86267
-86263
-86262
-86269
-86267
-86258
-86252
-86250
-86262
-86261
-86260
-86264
-86274
-86272
-86256
-86253
-86270
-86272
-86269
-86267
-86268
-86267
-86268
-86267
-86269
-86263
-86271
-86278
-86271
-86263
-86267
-86270
-86271
-86277
-86276
-86280
-86285
-86284
-86291
-86295
-86293
-86296
-86296
-86290
-86284
-86289
-86281
-86287
-86289
-86287
-86289
-86288
-86294
-86288
-86290
-86301
-86305
-86304
-86298
-86306
-86312
-86302
-86309
-86315
-86309
-86310
-86312
-86309
-86315
-86317
-86311
-86306
-86312
-86314
-86310
-86314
-86327
-86330
-86317
-86310
-86312
-86316
-86307
-86309
-86318
-86320
-86313
-86316
-86324
-86319
-86321
-86323
-86314
-86320
-86327
-86318
-86323
-86335
-86339
-86339
-86351
-86350
-86354
-86356
-86352
-86354
-86363
-86357
-86357
-86365
-86357
-86362
-86360
-86356
-86366
-86369
-86362
-86358
-86362
-86371
-86376
-86373
-86371
-86376
-86387
-86384
-86383
-86385
-86393
-86401
-86397
-86396
-86393
-86392
-86392
-86403
-86395
-86391
-86401
-86410
-86415
-86414
-86416
-86419
-86422
-86421
-86430
-86420
-86425
-86434
-86430
-86430
-86434
-86442
-86441
-86439
-86440
-86450
-86450
-86442
-86438
-86445
-86446
-86442
-86436
-86430
-86439
-86437
-86430
-86426
-86429
-86426
-86429
-86428
-86422
-86413
-86405
-86400
-86376
-86374
-86377
-86373
-86365
-86364
-86352
-86342
-86331
-86327
-86318
-86309
-86310
-86305
-86293
-86287
-86274
-86269
-86260
-86251
-86241
-86228
-86221
-86216
-86207
-86198
-86185
-86174
-86166
-86163
-86157
-86159
-86148
-86134
-86127
-86121
-86118
-86102
-86089
-86077
-86077
-86082
-86081
-86063
-86055
-86049
-86042
-86032
-86029
-86028
-86027
-86020
-86022
-86019
-86022
-86017
-86008
-86002
-86002
-86001
-86001
-86003
-85999
-85995
-85994
-86001
-86010
-86007
-85997
-85998
-86009
-86008
-86002
-85996
-86004
-86002
-86007
-86010
-86012
-86015
-86017
-86009
-86010
-86010
-86015
-86016
-86010
-86019
-86021
-86013
-86010
-86026
-86023
-86014
-86011
-86025
-86032
-86019
-86018
-86033
-86037
-86041
-86040
-86033
-86036
-86038
-86034
-86027
-86029
-86040
-86040
-86040
-86038
-86043
-86050
-86048
-86055
-86046
-86050
-86063
-86057
-86053
-86053
-86056
-86063
-86065
-86063
-86063
-86066
-86079
-86078
-86072
-86077
-86076
-86074
-86073
-86070
-86081
-86080
-86078
-86080
-86082
-86083
-86078
-86080
-86087
-86085
-86081
-86071
-86069
-86072
-86061
-86071
-86061
-86056
-86068
-86070
-86062
-86063
-86059
-86052
-86053
-86050
-86060
-86052
-86041
-86038
-86041
-86047
-86045
-86035
-86021
-86019
-86020
-86016
-86009
-86011
-86015
-86006
-85998
-86002
-86002
-86003
-85996
-85998
-85994
-85977
-85988
-85987
-85984
-85982
-85992
-85993
-85969
-85963
-85970
-85975
-85973
-85977
-85966
-85955
-85949
-85958
-85968
-85964
-85961
-85967
-85982
-85989
-85991
-85988
-85979
-85978
-85973
-85989
-85984
-85984
-85991
-85991
-86002
-85999
-85996
-86002
-86015
-86013
-86002
-86003
-86005
-86014
-86014
-86013
-86019
-86027
-86025
-86025
-86024
-86022
-86020
-86031
-86038
-86040
-86046
-86046
-86047
-86052
-86057
-86052
-86058
-86071
-86074
-86073
-86066
-86067
-86073
-86065
-86067
-86072
-86082
-86087
-86085
-86080
-86080
-86080
-86091
-86096
-86091
-86098
-86092
-86094
-86100
-86100
-86101
-86107
-86112
-86125
-86121
-86117
-86121
-86124
-86123
-86127
-86139
-86142
-86142
-86142
-86142
-86137
-86140
-86147
-86157
-86152
-86149
-86155
-86154
-86143
-86143
-86144
-86151
-86159
-86162
-86163
-86163
-86161
-86169
-86175
-86164
-86157
-86154
-86161
-86174
-86172
-86166
-86180
-86178
-86182
-86190
-86189
-86192
-86196
-86194
-86187
-86187
-86189
-86186
-86191
-86193
-86184
-86181
-86180
-86188
-86197
-86185
-86177
-86184
-86190
-86196
-86203
-86202
-86198
-86196
-86187
-86198
-86195
-86192
-86188
-86187
-86194
-86202
-86193
-86194
-86206
-86202
-86192
-86189
-86200
-86206
-86205
-86204
-86202
-86198
-86204
-86207
-86201
-86207
-86212
-86207
-86207
-86211
-86213
-86218
-86218
-86218
-86228
-86228
-86229
-86219
-86221
-86237
-86231
-86225
-86224
-86236
-86235
-86227
-86231
-86232
-86233
-86234
-86238
-86247
-86244
-86235
-86231
-86244
-86259
-86248
-86253
-86254
-86255
-86260
-86257
-86261
-86269
-86265
-86257
-86257
-86266
-86277
-86281
-86276
-86272
-86272
-86269
-86272
-86274
-86278
-86282
-86282
-86279
-86274
-86279
-86286
-86290
-86291
-86294
-86286
-86285
-86303
-86298
-86284
-86292
-86302
-86301
-86297
-86309
-86310
-86309
-86309
-86302
-86309
-86316
-86304
-86296
-86305
-86314
-86326
-86327
-86325
-86321
-86326
-86328
-86326
-86340
-86340
-86338
-86340
-86342
-86346
-86349
-86346
-86349
-86353
-86358
-86357
-86364
-86367
-86363
-86365
-86366
-86370
-86367
-86361
-86362
-86381
-86398
-86400
-86392
-86391
-86391
-86385
-86397
-86399
-86402
-86404
-86396
-86398
-86402
-86411
-86417
-86416
-86417
-86417
-86419
-86424
-86423
-86432
-86448
-86443
-86435
-86433
-86443
-86447
-86446
-86440
-86445
-86447
-86448
-86451
-86452
-86457
-86447
-86437
-86425
-86431
-86442
-86437
-86438
-86442
-86446
-86438
-86429
-86428
-86424
-86412
-86402
-86397
-86396
-86391
-86379
-86367
-86354
-86346
-86332
-86325
-86315
-86299
-86286
-86275
-86261
-86243
-86242
-86227
-86207
-86203
-86193
-86182
-86174
-86164
-86147
-86125
-86103
-86093
-86088
-86077
-86072
-86059
-86040
-86035
-86033
-86012
-86002
-85987
-85974
-85956
-85948
-85943
-85938
-85933
-85913
-85896
-85895
-85892
-85885
-85876
-85868
-85867
-85860
-85857
-85853
-85849
-85845
-85832
-85830
-85830
-85820
-85815
-85813
-85815
-85817
-85809
-85812
-85813
-85808
-85801
-85802
-85797
-85791
-85795
-85786
-85790
-85793
-85796
-85793
-85792
-85781
-85773
-85776
-85790
-85794
-85787
-85778
-85786
-85793
-85789
-85788
-85788
-85786
-85788
-85793
-85793
-85794
-85796
-85788
-85783
-85784
-85789
-85777
-85781
-85790
-85784
-85779
-85792
-85803
-85790
-85783
-85787
-85789
-85793
-85795
-85788
-85792
-85802
-85795
-85789
-85795
-85798
-85792
-85782
-85773
-85785
-85795
-85789
-85797
-85803
-85793
-85787
-85791
-85791
-85795
-85798
-85795
-85798
-85799
-85798
-85807
-85801
-85803
-85812
-85819
-85814
-85805
-85801
-85800
-85792
-85788
-85795
-85799
-85799
-85788
-85787
-85790
-85788
-85786
-85787
-85779
-85774
-85779
-85788
-85788
-85780
-85768
-85756
-85769
-85763
-85755
-85751
-85756
-85737
-85717
-85726
-85728
-85717
-85705
-85713
-85716
-85703
-85701
-85697
-85693
-85690
-85693
-85691
-85684
-85677
-85678
-85690
-85690
-85685
-85679
-85676
-85683
-85684
-85694
-85690
-85678
-85675
-85679
-85672
-85677
-85669
-85662
-85668
-85664
-85668
-85685
-85679
-85672
-85670
-85677
-85687
-85689
-85699
-85696
-85690
-85692
-85689
-85695
-85705
-85710
-85706
-85705
-85714
-85714
-85715
-85713
-85714
-85723
-85723
-85720
-85727
-85734
-85732
-85729
-85735
-85745
-85757
-85762
-85766
-85767
-85767
-85770
-85776
-85773
-85775
-85786
-85797
-85797
-85790
-85792
-85787
-85799
-85805
-85799
-85806
-85805
-85806
-85818
-85818
-85814
-85816
-85826
-85827
-85830
-85837
-85841
-85844
-85844
-85845
-85852
-85851
-85848
-85857
-85860
-85860
-85859
-85865
-85865
-85866
-85865
-85864
-85858
-85865
-85869
-85862
-85868
-85883
-85897
-85883
-85880
-85889
-85891
-85890
-85892
-85884
-85891
-85885
-85895
-85910
-85908
-85909
-85923
-85920
-85909
-85906
-85914
-85910
-85918
-85922
-85917
-85909
-85903
-85917
-85936
-85935
-85918
-85917
-85921
-85927
-85934
-85932
-85922
-85913
-85913
-85927
-85928
-85919
-85911
-85911
-85927
-85928
-85913
-85913
-85934
-85939
-85942
-85944
-85953
-85952
-85939
-85936
-85939
-85937
-85938
-85940
-85946
-85953
-85957
-85947
-85941
-85953
-85959
-85955
-85943
-85943
-85958
-85954
-85949
-85952
-85956
-85961
-85956
-85963
-85959
-85964
-85974
-85971
-85965
-85968
-85975
-85976
-85975
-85973
-85979
-85977
-85975
-85987
-85987
-85978
-85981
-85989
-85987
-85993
-85992
-85995
-86006
-86004
-85995
-85987
-85993
-85997
-85999
-86001
-86001
-86002
-86012
-86012
-86001
-86005
-86010
-86015
-86019
-86020
-86027
-86030
-86038
-86041
-86038
-86031
-86025
-86036
-86042
-86042
-86051
-86052
-86045
-86048
-86064
-86070
-86077
-86078
-86075
-86071
-86079
-86072
-86072
-86077
-86077
-86084
-86092
-86083
-86077
-86080
-86094
-86096
-86092
-86092
-86092
-86110
-86108
-86106
-86106
-86098
-86092
-86100
-86110
-86119
-86120
-86123
-86123
-86120
-86119
-86133
-86133
-86128
-86135
-86149
-86154
-86145
-86127
-86132
-86143
-86143
-86143
-86142
-86147
-86154
-86151
-86155
-86163
-86162
-86159
-86154
-86158
-86163
-86164
-86170
-86168
-86171
-86183
-86186
-86186
-86187
-86192
-86191
-86194
-86196
-86198
-86205
-86208
-86202
-86201
-86205
-86209
-86208
-86195
-86194
-86204
-86209
-86218
-86234
-86232
-86224
-86218
-86231
-86229
-86225
-86234
-86236
-86242
-86247
-86253
-86255
-86251
-86251
-86252
-86257
-86259
-86255
-86254
-86256
-86253
-86251
-86259
-86259
-86254
-86261
-86265
-86264
-86267
-86264
-86270
-86269
-86267
-86267
-86269
-86263
-86267
-86264
-86254
-86251
-86252
-86243
-86242
-86231
-86232
-86225
-86217
-86207
-86204
-86192
-86172
-86156
-86150
-86151
-86139
-86128
-86108
-86097
-86084
-86073
-86060
-86038
-86020
-86002
-85988
-85980
-85959
-85944
-85930
-85917
-85911
-85895
-85874
-85852
-85838
-85816
-85802
-85784
-85771
-85759
-85743
-85737
-85725
-85718
-85693
-85679
-85662
-85636
-85621
-85625
-85623
-85603
-85593
-85595
-85580
-85560
-85553
-85541
-85523
-85516
-85517
-85516
-85510
-85504
-85491
-85490
-85492
-85488
-85473
-85476
-85478
-85468
-85476
-85489
-85479
-85468
-85460
-85463
-85460
-85457
-85468
-85470
-85469
-85478
-85468
-85460
-85463
-85462
-85448
-85441
-85442
-85446
-85449
-85452
-85455
-85455
-85454
-85452
-85457
-85461
-85459
-85461
-85455
-85451
-85452
-85443
-85440
-85435
-85438
-85451
-85452
-85451
-85452
-85445
-85439
-85436
-85433
-85434
-85436
-85441
-85450
-85451
-85447
-85447
-85449
-85445
-85443
-85449
-85446
-85449
-85448
-85449
-85450
-85447
-85447
-85455
-85470
-85467
-85471
-85458
-85454
-85471
-85477
-85469
-85458
-85475
-85482
-85468
-85467
-85464
-85466
-85473
-85472
-85467
-85463
-85456
-85462
-85472
-85463
-85455
-85452
-85448
-85451
-85451
-85452
-85443
-85441
-85435
-85437
-85426
-85422
-85419
-85414
-85409
-85397
-85397
-85400
-85398
-85391
-85381
-85385
-85380
-85377
-85379
-85373
-85359
-85348
-85345
-85345
-85348
-85347
-85334
-85328
-85331
-85323
-85322
-85322
-85322
-85315
-85308
-85307
-85300
-85295
-85292
-85285
-85287
-85288
-85278
-85273
-85272
-85279
-85292
-85297
-85296
-85302
-85300
-85290
-85295
-85291
-85285
-85289
-85287
-85288
-85284
-85283
-85288
-85288
-85290
-85300
-85302
-85299
-85310
-85319
-85322
-85327
-85324
-85326
-85327
-85330
-85338
-85330
-85327
-85325
-85334
-85337
-85344
-85357
-85358
-85360
-85366
-85358
-85360
-85354
-85363
-85369
-85371
-85370
-85376
-85378
-85374
-85375
-85375
-85381
-85394
-85391
-85386
-85396
-85399
-85405
-85415
-85419
-85418
-85412
-85417
-85416
-85415
-85427
-85431
-85432
-85434
-85424
-85420
-85428
-85441
-85452
-85450
-85440
-85450
-85456
-85453
-85455
-85455
-85450
-85457
-85460
-85461
-85459
-85454
-85450
-85455
-85461
-85464
-85459
-85456
-85469
-85465
-85470
-85474
-85476
-85475
-85473
-85470
-85461
-85463
-85468
-85462
-85465
-85465
-85460
-85456
-85466
-85476
-85478
-85478
-85471
-85468
-85480
-85483
-85487
-85485
-85482
-85487
-85484
-85476
-85472
-85478
-85480
-85478
-85478
-85473
-85472
-85473
-85472
-85489
-85493
-85488
-85485
-85484
-85477
-85469
-85474
-85471
-85473
-85476
-85472
-85478
-85480
-85478
-85486
-85485
-85473
-85477
-85484
-85481
-85484
-85483
-85479
-85479
-85480
-85480
-85475
-85474
-85474
-85476
-85483
-85478
-85485
-85488
-85470
-85458
-85452
-85465
-85467
-85463
-85476
-85484
-85472
-85472
-85488
-85490
-85490
-85486
-85473
-85484
-85490
-85480
-85482
-85490
-85491
-85485
-85488
-85487
-85489
-85490
-85487
-85484
-85489
-85493
-85487
-85492
-85499
-85503
-85504
-85493
-85493
-85497
-85501
-85506
-85509
-85509
-85511
-85506
-85492
-85506
-85517
-85515
-85507
-85515
-85521
-85516
-85517
-85518
-85517
-85506
-85511
-85511
-85515
-85519
-85515
-85511
-85517
-85523
-85524
-85516
-85518
-85527
-85528
-85525
-85528
-85536
-85533
-85524
-85511
-85505
-85522
-85523
-85513
-85526
-85534
-85530
-85535
-85539
-85544
-85547
-85549
-85552
-85545
-85541
-85545
-85540
-85547
-85556
-85554
-85557
-85559
-85566
-85557
-85553
-85569
-85566
-85566
-85562
-85553
-85552
-85557
-85560
-85558
-85565
-85571
-85570
-85570
-85568
-85568
-85570
-85565
-85565
-85577
-85585
-85584
-85584
-85584
-85588
-85593
-85594
-85591
-85590
-85597
-85600
-85603
-85601
-85594
-85604
-85602
-85593
-85590
-85596
-85602
-85596
-85600
-85606
-85613
-85615
-85600
-85597
-85601
-85617
-85625
-85628
-85623
-85615
-85618
-85622
-85620
-85620
-85618
-85612
-85620
-85624
-85620
-85622
-85622
-85614
-85606
-85609
-85620
-85618
-85611
-85607
-85596
-85583
-85580
-85574
-85558
-85559
-85556
-85554
-85540
-85531
-85511
-85491
-85482
-85480
-85476
-85453
-85431
-85426
-85407
-85390
-85378
-85356
-85334
-85317
-85303
-85287
-85264
-85248
-85226
-85203
-85181
-85170
-85149
-85133
-85116
-85088
-85072
-85070
-85044
-85015
-85006
-85000
-84983
-84960
-84940
-84927
-84914
-84906
-84890
-84880
-84872
-84851
-84843
-84824
-84815
-84809
-84795
-84769
-84760
-84759
-84750
-84742
-84738
-84726
-84716
-84714
-84713
-84713
-84701
-84685
-84686
-84693
-84687
-84688
-84685
-84672
-84676
-84676
-84667
-84664
-84666
-84675
-84671
-84670
-84665
-84666
-84665
-84659
-84665
-84662
-84664
-84670
-84666
-84655
-84649
-84644
-84654
-84664
-84662
-84660
-84662
-84662
-84670
-84653
-84641
-84655
-84671
-84666
-84660
-84664
-84673
-84666
-84657
-84658
-84654
-84661
-84672
-84676
-84670
-84671
-84668
-84669
-84673
-84676
-84679
-84681
-84678
-84681
-84687
-84685
-84682
-84676
-84690
-84686
-84687
-84687
-84684
-84695
-84691
-84688
-84698
-84698
-84687
-84684
-84687
-84691
-84696
-84697
-84695
-84692
-84688
-84687
-84688
-84687
-84685
-84674
-84675
-84682
-84680
-84674
-84680
-84688
-84674
-84660
-84654
-84661
-84659
-84649
-84642
-84642
-84644
-84645
-84632
-84620
-84618
-84612
-84600
-84591
-84589
-84583
-84574
-84567
-84570
-84565
-84558
-84544
-84534
-84534
-84529
-84530
-84534
-84525
-84525
-84519
-84508
-84513
-84512
-84507
-84513
-84509
-84509
-84509
-84500
-84491
-84485
-84483
-84480
-84482
-84485
-84486
-84483
-84480
-84480
-84479
-84488
-84492
-84484
-84475
-84470
-84479
-84490
-84494
-84496
-84486
-84477
-84489
-84500
-84503
-84497
-84491
-84507
-84506
-84511
-84525
-84534
-84534
-84533
-84525
-84522
-84524
-84530
-84525
-84533
-84539
-84531
-84535
-84546
-84559
-84564
-84560
-84557
-84571
-84573
-84577
-84585
-84578
-84574
-84582
-84590
-84602
-84605
-84603
-84604
-84618
-84634
-84628
-84608
-84619
-84636
-84632
-84628
-84626
-84640
-84643
-84638
-84639
-84643
-84639
-84652
-84654
-84657
-84666
-84667
-84662
-84663
-84665
-84669
-84681
-84689
-84688
-84696
-84690
-84693
-84701
-84709
-84706
-84705
-84707
-84706
-84712
-84714
-84714
-84722
-84720
-84712
-84713
-84726
-84736
-84736
-84731
-84732
-84737
-84739
-84725
-84725
-84733
-84738
-84734
-84739
-84745
-84737
-84735
-84737
-84741
-84739
-84725
-84732
-84739
-84738
-84737
-84740
-84746
-84748
-84753
-84755
-84757
-84752
-84749
-84747
-84760
-84766
-84763
-84759
-84746
-84742
-84750
-84746
-84734
-84755
-84770
-84765
-84756
-84769
-84779
-84782
-84767
-84764
-84777
-84776
-84759
-84767
-84773
-84770
-84770
-84763
-84768
-84780
-84781
-84777
-84776
-84789
-84793
-84785
-84790
-84795
-84802
-84800
-84800
-84796
-84791
-84790
-84796
-84804
-84809
-84810
-84808
-84799
-84802
-84804
-84803
-84810
-84829
-84836
-84831
-84825
-84829
-84830
-84824
-84826
-84834
-84843
-84841
-84838
-84839
-84838
-84848
-84846
-84845
-84861
-84873
-84872
-84868
-84865
-84880
-84883
-84881
-84871
-84870
-84880
-84880
-84879
-84881
-84880
-84875
-84880
-84892
-84897
-84892
-84888
-84898
-84896
-84896
-84899
-84898
-84908
-84921
-84919
-84919
-84926
-84934
-84926
-84924
-84940
-84943
-84941
-84939
-84943
-84952
-84953
-84950
-84955
-84957
-84963
-84959
-84962
-84972
-84980
-84974
-84968
-84967
-84976
-84985
-84986
-84987
-84990
-84994
-84995
-84997
-85004
-85007
-85017
-85027
-85039
-85038
-85030
-85039
-85058
-85050
-85043
-85039
-85047
-85052
-85053
-85050
-85056
-85070
-85070
-85066
-85070
-85078
-85082
-85096
-85098
-85098
-85102
-85096
-85098
-85107
-85117
-85120
-85124
-85131
-85123
-85119
-85128
-85126
-85131
-85138
-85139
-85140
-85141
-85143
-85146
-85138
-85148
-85160
-85152
-85153
-85153
-85150
-85140
-85135
-85136
-85130
-85124
-85127
-85129
-85121
-85124
-85126
-85116
-85106
-85101
-85088
-85074
-85061
-85060
-85045
-85028
-85015
-85003
-84995
-84972
-84959
-84944
-84928
-84909
-84882
-84867
-84868
-84846
-84831
-84808
-84786
-84764
-84740
-84724
-84711
-84695
-84687
-84659
-84639
-84626
-84604
-84579
-84547
-84539
-84533
-84512
-84490
-84490
-84477
-84458
-84441
-84425
-84414
-84402
-84392
-84381
-84372
-84354
-84332
-84326
-84309
-84296
-84289
-84285
-84287
-84284
-84264
-84250
-84242
-84235
-84227
-84226
-84232
-84234
-84231
-84219
-84219
-84234
-84237
-84228
-84227
-84228
-84228
-84225
-84225
-84233
-84230
-84232
-84235
-84232
-84223
-84231
-84221
-84212
-84233
-84242
-84233
-84236
-84265
-84275
-84250
-84254
-84266
-84267
-84267
-84268
-84273
-84283
-84279
-84272
-84284
-84297
-84296
-84298
-84302
-84302
-84303
-84295
-84289
-84308
-84320
-84330
-84327
-84320
-84319
-84314
-84324
-84327
-84331
-84339
-84345
-84342
-84341
-84354
-84369
-84370
-84366
-84380
-84387
-84379
-84375
-84398
-84404
-84406
-84407
-84407
-84411
-84408
-84413
-84409
-84409
-84406
-84400
-84404
-84412
-84410
-84407
-84415
-84421
-84414
-84404
-84403
-84411
-84410
-84400
-84401
-84404
-84397
-84394
-84387
-84382
-84374
-84368
-84374
-84361
-84357
-84359
-84355
-84351
-84341
-84336
-84336
-84327
-84319
-84320
-84315
-84305
-84304
-84304
-84307
-84303
-84289
-84287
-84288
-84278
-84277
-84282
-84272
-84255
-84254
-84262
-84255
-84247
-84246
-84251
-84249
-84254
-84245
-84234
-84237
-84251
-84248
-84237
-84226
-84219
-84227
-84233
-84234
-84239
-84249
-84242
-84252
-84273
-84268
-84254
-84256
-84265
-84264
-84260
-84262
-84259
-84274
-84278
-84269
-84265
-84283
-84293
-84301
-84299
-84296
-84304
-84305
-84308
-84317
-84325
-84325
-84327
-84331
-84346
-84349
-84349
-84356
-84364
-84378
-84380
-84380
-84394
-84411
-84407
-84408
-84414
-84426
-84425
-84414
-84414
-84418
-84426
-84435
-84435
-84450
-84459
-84451
-84450
-84462
-84483
-84486
-84489
-84495
-84489
-84499
-84510
-84511
-84515
-84515
-84509
-84512
-84535
-84544
-84543
-84546
-84545
-84544
-84546
-84547
-84552
-84565
-84575
-84578
-84579
-84579
-84585
-84585
-84571
-84579
-84581
-84572
-84576
-84588
-84595
-84592
-84583
-84585
-84596
-84594
-84587
-84599
-84616
-84607
-84598
-84602
-84604
-84611
-84615
-84615
-84623
-84628
-84619
-84622
-84626
-84627
-84622
-84610
-84605
-84616
-84618
-84616
-84612
-84620
-84626
-84618
-84618
-84635
-84646
-84649
-84639
-84629
-84631
-84633
-84626
-84632
-84638
-84638
-84636
-84644
-84646
-84650
-84649
-84643
-84642
-84649
-84636
-84631
-84645
-84657
-84656
-84655
-84650
-84655
-84655
-84650
-84656
-84670
-84671
-84667
-84659
-84666
-84685
-84676
-84668
-84668
-84668
-84668
-84669
-84674
-84687
-84689
-84686
-84689
-84691
-84688
-84684
-84684
-84693
-84705
-84705
-84692
-84687
-84706
-84720
-84716
-84714
-84716
-84727
-84728
-84732
-84735
-84736
-84739
-84743
-84751
-84754
-84747
-84745
-84753
-84762
-84767
-84768
-84764
-84772
-84765
-84766
-84764
-84769
-84786
-84787
-84786
-84792
-84803
-84807
-84799
-84792
-84808
-84816
-84815
-84812
-84815
-84826
-84826
-84822
-84823
-84830
-84839
-84839
-84835
-84849
-84850
-84842
-84845
-84848
-84851
-84859
-84862
-84863
-84857
-84859
-84863
-84858
-84865
-84872
-84882
-84894
-84909
-84903
-84891
-84898
-84910
-84916
-84917
-84916
-84927
-84925
-84926
-84927
-84945
-84950
-84938
-84934
-84942
-84956
-84954
-84949
-84951
-84971
-84973
-84965
-84971
-84985
-84997
-84993
-84987
-84987
-84990
-84993
-84998
-84998
-84997
-84996
-85002
-85005
-85012
-85018
-85021
-85024
-85028
-85038
-85045
-85055
-85052
-85050
-85045
-85056
-85054
-85052
-85043
-85050
-85055
-85063
-85075
-85076
-85073
-85078
-85085
-85080
-85078
-85091
-85101
-85100
-85098
-85099
-85098
-85100
-85092
-85089
-85086
-85089
-85088
-85077
-85083
-85093
-85082
-85069
-85052
-85039
-85032
-85017
-85006
-85001
-84988
-84982
-84963
-84943
-84942
-84915
-84893
-84876
-84868
-84852
-84831
-84815
-84794
-84768
-84742
-84724
-84715
-84685
-84649
-84633
-84616
-84584
-84556
-84531
-84515
-84495
-84469
-84449
-84418
-84393
-84382
-84356
-84318
-84298
-84276
-84253
-84232
-84222
-84213
-84205
-84185
-84170
-84163
-84141
-84117
-84102
-84087
-84072
-84053
-84037
-84028
-84014
-84004
-83996
-83989
-83980
-83974
-83949
-83939
-83948
-83943
-83935
-83930
-83942
-83939
-83922
-83917
-83924
-83929
-83928
-83933
-83927
-83916
-83911
-83918
-83927
-83928
-83929
-83926
-83931
-83943
-83955
-83953
-83945
-83952
-83949
-83957
-83949
-83946
-83949
-83942
-83949
-83948
-83957
-83970
-83975
-83967
-83956
-83961
-83960
-83963
-83970
-83979
-83972
-83966
-83965
-83971
-83980
-83984
-83980
-83988
-83993
-83986
-83992
-83999
-83997
-83982
-83978
-83984
-83997
-83992
-83984
-83983
-83994
-83998
-83998
-84011
-84013
-84010
-84016
-84014
-84013
-84015
-84021
-84023
-84029
-84043
-84042
-84041
-84040
-84048
-84046
-84038
-84041
-84040
-84035
-84033
-84033
-84039
-84043
-84039
-84038
-84047
-84047
-84043
-84039
-84031
-84020
-84013
-84007
-84001
-84005
-83995
-83982
-83978
-83985
-83971
-83960
-83959
-83961
-83958
-83950
-83940
-83934
-83937
-83942
-83936
-83918
-83914
-83904
-83899
-83904
-83899
-83894
-83893
-83877
-83873
-83886
-83888
-83869
-83876
-83887
-83865
-83855
-83855
-83847
-83843
-83839
-83829
-83817
-83823
-83833
-83838
-83831
-83821
-83822
-83826
-83829
-83841
-83840
-83833
-83831
-83832
-83842
-83845
-83847
-83851
-83853
-83861
-83865
-83854
-83850
-83854
-83866
-83882
-83879
-83885
-83882
-83872
-83877
-83886
-83889
-83892
-83897
-83909
-83909
-83909
-83907
-83910
-83917
-83921
-83933
-83935
-83935
-83948
-83952
-83965
-83966
-83965
-83976
-83990
-83993
-83986
-83987
-84005
-84009
-84015
-84021
-84019
-84023
-84027
-84032
-84041
-84044
-84038
-84050
-84059
-84053
-84068
-84080
-84079
-84083
-84090
-84097
-84095
-84086
-84091
-84101
-84097
-84100
-84109
-84120
-84132
-84123
-84122
-84123
-84127
-84125
-84129
-84145
-84151
-84142
-84137
-84146
-84156
-84147
-84142
-84143
-84143
-84152
-84152
-84151
-84161
-84166
-84162
-84157
-84175
-84181
-84171
-84161
-84167
-84177
-84168
-84156
-84162
-84172
-84172
-84172
-84172
-84173
-84172
-84173
-84173
-84178
-84180
-84172
-84170
-84181
-84185
-84185
-84179
-84179
-84186
-84180
-84179
-84184
-84192
-84186
-84185
-84189
-84185
-84193
-84183
-84182
-84192
-84195
-84186
-84186
-84192
-84204
-84194
-84185
-84194
-84201
-84204
-84204
-84199
-84202
-84214
-84216
-84209
-84208
-84211
-84212
-84209
-84209
-84214
-84214
-84222
-84227
-84225
-84224
-84232
-84224
-84221
-84224
-84233
-84233
-84238
-84242
-84237
-84234
-84231
-84230
-84230
-84245
-84252
-84246
-84242
-84249
-84256
-84264
-84261
-84271
-84264
-84264
-84278
-84283
-84280
-84284
-84291
-84291
-84281
-84287
-84294
-84297
-84303
-84297
-84298
-84306
-84310
-84311
-84319
-84329
-84333
-84331
-84330
-84337
-84340
-84339
-84347
-84336
-84325
-84326
-84336
-84351
-84365
-84361
-84356
-84369
-84377
-84373
-84363
-84362
-84375
-84371
-84372
-84382
-84395
-84397
-84387
-84382
-84396
-84407
-84406
-84404
-84402
-84407
-84403
-84399
-84405
-84412
-84420
-84416
-84416
-84419
-84424
-84429
-84430
-84428
-84435
-84436
-84439
-84446
-84451
-84456
-84463
-84457
-84456
-84463
-84464
-84471
-84478
-84486
-84475
-84477
-84478
-84479
-84479
-84490
-84495
-84496
-84502
-84504
-84503
-84512
-84523
-84519
-84517
-84525
-84529
-84522
-84523
-84527
-84525
-84526
-84525
-84536
-84545
-84544
-84541
-84537
-84542
-84551
-84552
-84554
-84559
-84564
-84567
-84560
-84566
-84578
-84579
-84588
-84585
-84581
-84593
-84600
-84589
-84583
-84590
-84604
-84604
-84600
-84600
-84598
-84605
-84609
-84618
-84621
-84621
-84624
-84628
-84635
-84628
-84619
-84628
-84632
-84638
-84649
-84658
-84658
-84648
-84639
-84625
-84621
-84620
-84629
-84628
-84616
-84602
-84603
-84593
-84583
-84577
-84565
-84547
-84534
-84522
-84511
-84499
-84480
-84466
-84438
-84418
-84394
-84380
-84366
-84346
-84312
-84287
-84269
-84234
-84208
-84199
-84188
-84153
-84123
-84105
-84085
-84055
-84030
-84017
-83998
-83962
-83930
-83908
-83890
-83867
-83843
-83824
-83807
-83794
-83775
-83752
-83731
-83714
-83697
-83686
-83655
-83644
-83627
-83609
-83602
-83588
-83575
-83571
-83557
-83543
-83530
-83526
-83523
-83511
-83493
-83490
-83482
-83475
-83479
-83473
-83471
-83472
-83472
-83468
-83464
-83462
-83472
-83475
-83465
-83464
-83462
-83463
-83466
-83465
-83469
-83479
-83477
-83466
-83469
-83482
-83489
-83485
-83483
-83485
-83492
-83490
-83488
-83494
-83502
-83505
-83506
-83513
-83503
-83507
-83512
-83509
-83511
-83523
-83525
-83520
-83527
-83533
-83525
-83528
-83534
-83540
-83545
-83548
-83546
-83549
-83554
-83546
-83542
-83554
-83559
-83556
-83555
-83569
-83572
-83570
-83569
-83577
-83595
-83599
-83591
-83584
-83582
-83593
-83605
-83602
-83589
-83591
-83597
-83606
-83614
-83620
-83609
-83612
-83603
-83622
-83640
-83632
-83631
-83639
-83636
-83623
-83613
-83620
-83612
-83609
-83607
-83590
-83582
-83579
-83580
-83594
-83591
-83569
-83568
-83570
-83564
-83563
-83561
-83557
-83555
-83551
-83550
-83541
-83521
-83517
-83521
-83529
-83522
-83500
-83487
-83489
-83481
-83478
-83474
-83471
-83468
-83459
-83453
-83453
-83442
-83436
-83438
-83440
-83432
-83423
-83423
-83418
-83414
-83417
-83420
-83415
-83408
-83408
-83410
-83420
-83419
-83414
-83410
-83406
-83407
-83406
-83407
-83412
-83410
-83416
-83417
-83408
-83404
-83417
-83427
-83425
-83420
-83425
-83433
-83428
-83418
-83436
-83448
-83446
-83455
-83462
-83468
-83465
-83472
-83481
-83480
-83476
-83477
-83490
-83503
-83509
-83511
-83516
-83519
-83517
-83511
-83512
-83525
-83530
-83540
-83550
-83551
-83561
-83562
-83560
-83567
-83576
-83588
-83585
-83588
-83592
-83597
-83598
-83593
-83609
-83615
-83623
-83618
-83618
-83632
-83638
-83624
-83634
-83643
-83644
-83645
-83656
-83663
-83669
-83673
-83676
-83683
-83686
-83680
-83669
-83679
-83692
-83693
-83685
-83684
-83691
-83697
-83698
-83705
-83709
-83704
-83709
-83706
-83701
-83708
-83702
-83702
-83717
-83724
-83722
-83721
-83726
-83736
-83731
-83727
-83733
-83733
-83724
-83724
-83718
-83727
-83734
-83735
-83731
-83728
-83730
-83733
-83730
-83727
-83728
-83733
-83731
-83727
-83723
-83713
-83722
-83727
-83724
-83732
-83743
-83739
-83737
-83737
-83740
-83739
-83734
-83743
-83735
-83730
-83745
-83748
-83741
-83734
-83734
-83736
-83730
-83737
-83732
-83720
-83726
-83733
-83735
-83736
-83748
-83751
-83743
-83735
-83734
-83746
-83745
-83738
-83747
-83750
-83732
-83733
-83742
-83749
-83754
-83749
-83749
-83757
-83755
-83747
-83759
-83765
-83756
-83754
-83759
-83769
-83776
-83771
-83762
-83769
-83782
-83774
-83764
-83758
-83761
-83763
-83771
-83778
-83782
-83782
-83776
-83774
-83773
-83787
-83797
-83786
-83785
-83795
-83803
-83803
-83810
-83815
-83817
-83810
-83811
-83822
-83824
-83822
-83819
-83827
-83824
-83823
-83842
-83844
-83834
-83828
-83833
-83839
-83849
-83846
-83840
-83841
-83847
-83851
-83850
-83860
-83860
-83852
-83854
-83856
-83864
-83864
-83871
-83878
-83875
-83880
-83879
-83881
-83885
-83883
-83890
-83886
-83888
-83896
-83890
-83887
-83896
-83908
-83908
-83917
-83911
-83906
-83925
-83941
-83921
-83910
-83925
-83935
-83935
-83928
-83932
-83939
-83943
-83959
-83957
-83955
-83963
-83963
-83957
-83960
-83974
-83971
-83971
-83978
-83984
-83984
-83987
-83983
-83986
-83994
-83993
-84003
-84011
-84009
-83999
-83993
-84007
-84006
-84005
-84011
-84013
-84020
-84025
-84026
-84029
-84030
-84032
-84040
-84052
-84063
-84063
-84070
-84070
-84073
-84070
-84066
-84071
-84063
-84059
-84072
-84079
-84078
-84081
-84077
-84077
-84078
-84081
-84086
-84089
-84063
-84061
-84084
-84087
-84073
-84069
-84079
-84076
-84060
-84062
-84059
-84046
-84041
-84037
-84039
-84024
-84006
-83993
-83993
-83983
-83961
-83942
-83928
-83915
-83898
-83886
-83873
-83862
-83840
-83832
-83805
-83781
-83766
-83744
-83719
-83691
-83671
-83651
-83623
-83592
-83560
-83551
-83534
-83509
-83496
-83477
-83443
-83419
-83401
-83382
-83369
-83356
-83331
-83311
-83295
-83276
-83264
-83237
-83219
-83211
-83195
-83181
-83173
-83160
-83147
-83134
-83122
-83111
-83102
-83096
-83088
-83084
-83085
-83073
-83064
-83061
-83057
-83061
-83072
-83059
-83048
-83051
-83045
-83045
-83041
-83038
-83045
-83050
-83048
-83042
-83046
-83048
-83051
-83055
-83062
-83066
-83061
-83065
-83072
-83075
-83074
-83077
-83082
-83092
-83098
-83095
-83082
-83087
-83102
-83095
-83098
-83104
-83114
-83118
-83119
-83118
-83124
-83134
-83149
-83145
-83135
-83143
-83149
-83151
-83163
-83164
-83159
-83167
-83167
-83186
-83197
-83192
-83188
-83197
-83206
-83194
-83192
-83218
-83223
-83225
-83223
-83220
-83232
-83239
-83246
-83255
-83261
-83259
-83265
-83261
-83265
-83278
-83276
-83257
-83250
-83262
-83271
-83270
-83266
-83269
-83274
-83281
-83282
-83279
-83273
-83269
-83261
-83266
-83274
-83276
-83269
-83260
-83249
-83251
-83249
-83243
-83243
-83241
-83239
-83230
-83226
-83220
-83211
-83211
-83204
-83197
-83190
-83193
-83186
-83178
-83179
-83173
-83166
-83163
-83158
-83148
-83147
-83141
-83134
-83130
-83121
-83122
-83124
-83128
-83126
-83118
-83110
-83112
-83116
-83105
-83098
-83106
-83107
-83095
-83103
-83105
-83103
-83100
-83098
-83101
-83097
-83096
-83102
-83106
-83104
-83099
-83107
-83120
-83122
-83113
-83114
-83127
-83126
-83130
-83136
-83137
-83139
-83141
-83144
-83152
-83151
-83159
-83169
-83173
-83174
-83188
-83193
-83187
-83194
-83221
-83231
-83234
-83228
-83226
-83238
-83245
-83243
-83254
-83249
-83252
-83265
-83274
-83277
-83286
-83290
-83298
-83306
-83316
-83319
-83314
-83335
-83349
-83352
-83356
-83358
-83370
-83371
-83376
-83390
-83389
-83380
-83394
-83402
-83397
-83409
-83406
-83408
-83419
-83434
-83440
-83438
-83441
-83453
-83453
-83447
-83463
-83475
-83472
-83461
-83456
-83465
-83473
-83489
-83490
-83482
-83489
-83498
-83504
-83502
-83496
-83504
-83516
-83521
-83519
-83514
-83520
-83529
-83534
-83539
-83537
-83529
-83539
-83547
-83547
-83550
-83551
-83552
-83543
-83546
-83551
-83548
-83553
-83566
-83579
-83572
-83575
-83584
-83577
-83576
-83593
-83589
-83587
-83581
-83578
-83583
-83578
-83581
-83586
-83599
-83601
-83599
-83599
-83603
-83609
-83612
-83608
-83597
-83605
-83613
-83611
-83611
-83613
-83609
-83611
-83612
-83609
-83612
-83619
-83630
-83640
-83641
-83635
-83647
-83647
-83642
-83636
-83632
-83645
-83643
-83644
-83649
-83652
-83652
-83655
-83652
-83652
-83663
-83675
-83670
-83664
-83667
-83670
-83677
-83688
-83697
-83696
-83692
-83697
-83699
-83699
-83701
-83702
-83697
-83701
-83713
-83721
-83723
-83719
-83715
-83719
-83729
-83741
-83739
-83741
-83759
-83764
-83758
-83747
-83760
-83769
-83770
-83768
-83780
-83791
-83789
-83791
-83797
-83799
-83813
-83822
-83810
-83808
-83823
-83829
-83818
-83819
-83832
-83833
-83831
-83832
-83838
-83842
-83857
-83860
-83854
-83865
-83880
-83874
-83877
-83893
-83898
-83901
-83901
-83909
-83916
-83911
-83914
-83916
-83925
-83931
-83924
-83924
-83932
-83926
-83934
-83944
-83954
-83951
-83954
-83960
-83966
-83976
-83976
-83979
-83993
-83988
-83990
-83994
-83985
-83993
-84001
-84003
-84007
-84023
-84033
-84031
-84033
-84035
-84034
-84041
-84053
-84064
-84073
-84075
-84074
-84076
-84083
-84086
-84085
-84094
-84099
-84089
-84094
-84096
-84105
-84118
-84120
-84120
-84123
-84125
-84125
-84133
-84124
-84118
-84128
-84134
-84133
-84137
-84155
-84157
-84146
-84153
-84157
-84161
-84175
-84180
-84171
-84163
-84159
-84149
-84160
-84168
-84155
-84146
-84141
-84136
-84139
-84134
-84123
-84110
-84095
-84097
-84075
-84056
-84047
-84035
-84022
-84003
-83982
-83970
-83956
-83937
-83917
-83901
-83886
-83866
-83842
-83818
-83799
-83776
-83758
-83733
-83707
-83692
-83678
-83647
-83628
-83606
-83595
-83584
-83557
-83531
-83515
-83499
-83480
-83455
-83425
-83410
-83397
-83379
-83362
-83353
-83337
-83317
-83302
-83299
-83297
-83275
-83264
-83257
-83256
-83242
-83225
-83220
-83205
-83190
-83184
-83190
-83192
-83193
-83186
-83178
-83178
-83185
-83192
-83191
-83183
-83178
-83181
-83182
-83193
-83194
-83189
-83189
-83193
-83199
-83205
-83203
-83206
-83220
-83220
-83218
-83218
-83227
-83240
-83242
-83241
-83242
-83245
-83245
-83255
-83264
-83265
-83262
-83267
-83275
-83277
-83275
-83274
-83286
-83287
-83309
-83317
-83316
-83311
-83323
-83328
-83320
-83320
-83339
-83336
-83337
-83338
-83332
-83332
-83336
-83353
-83366
-83360
-83352
-83364
-83375
-83383
-83391
-83398
-83392
-83394
-83396
-83407
-83412
-83405
-83412
-83416
-83421
-83424
-83424
-83423
-83429
-83432
-83446
-83454
-83456
-83447
-83439
-83442
-83446
-83448
-83448
-83447
-83449
-83448
-83446
-83439
-83433
-83434
-83440
-83443
-83445
-83438
-83436
-83430
-83420
-83412
-83410
-83400
-83397
-83405
-83401
-83403
-83394
-83385
-83382
-83374
-83368
-83363
-83356
-83364
-83362
-83357
-83348
-83345
-83337
-83323
-83319
-83318
-83310
-83314
-83310
-83311
-83304
-83301
-83299
-83297
-83293
-83295
-83306
-83303
-83296
-83296
-83302
-83296
-83290
-83290
-83287
-83291
-83303
-83302
-83307
-83313
-83311
-83309
-83305
-83305
-83319
-83328
-83324
-83321
-83331
-83336
-83329
-83338
-83359
-83357
-83359
-83362
-83370
-83379
-83383
-83380
-83388
-83387
-83389
-83398
-83412
-83417
-83422
-83425
-83427
-83425
-83437
-83448
-83449
-83460
-83470
-83473
-83478
-83485
-83492
-83497
-83509
-83520
-83517
-83517
-83532
-83537
-83529
-83539
-83540
-83538
-83559
-83574
-83573
-83580
-83581
-83594
-83602
-83600
-83607
-83607
-83610
-83623
-83619
-83624
-83630
-83642
-83650
-83643
-83656
-83666
-83667
-83666
-83665
-83676
-83681
-83685
-83685
-83685
-83693
-83687
-83683
-83689
-83692
-83692
-83705
-83709
-83711
-83712
-83714
-83727
-83723
-83727
-83737
-83736
-83739
-83745
-83749
-83743
-83749
-83754
-83749
-83746
-83753
-83756
-83758
-83752
-83753
-83758
-83759
-83767
-83764
-83773
-83785
-83785
-83772
-83775
-83778
-83769
-83765
-83762
-83776
-83786
-83789
-83801
-83796
-83795
-83802
-83795
-83788
-83797
-83802
-83808
-83818
-83811
-83805
-83807
-83815
-83810
-83809
-83814
-83816
-83810
-83814
-83824
-83830
-83829
-83828
-83834
-83842
-83846
-83852
-83844
-83836
-83840
-83836
-83832
-83837
-83846
-83858
-83858
-83858
-83857
-83855
-83861
-83868
-83868
-83867
-83873
-83884
-83884
-83881
-83880
-83890
-83900
-83909
-83911
-83904
-83909
-83920
-83925
-83923
-83927
-83926
-83925
-83922
-83924
-83931
-83942
-83948
-83954
-83959
-83961
-83959
-83966
-83973
-83971
-83979
-83980
-83985
-83988
-83990
-83995
-84000
-84014
-84014
-84010
-84004
-84003
-84015
-84022
-84015
-84020
-84031
-84034
-84040
-84045
-84052
-84048
-84047
-84061
-84059
-84057
-84068
-84074
-84072
-84066
-84066
-84077
-84088
-84095
-84096
-84096
-84102
-84114
-84121
-84123
-84118
-84131
-84134
-84135
-84137
-84132
-84134
-84136
-84138
-84150
-84157
-84151
-84153
-84159
-84157
-84157
-84161
-84168
-84176
-84179
-84175
-84177
-84186
-84196
-84197
-84200
-84203
-84207
-84212
-84213
-84222
-84232
-84234
-84230
-84231
-84239
-84243
-84235
-84249
-84245
-84241
-84256
-84261
-84251
-84252
-84268
-84272
-84262
-84274
-84285
-84284
-84283
-84289
-84294
-84286
-84284
-84300
-84306
-84297
-84300
-84312
-84324
-84321
-84321
-84331
-84348
-84349
-84338
-84347
-84353
-84356
-84357
-84352
-84360
-84366
-84365
-84373
-84372
-84365
-84362
-84374
-84382
-84377
-84372
-84370
-84372
-84372
-84364
-84363
-84354
-84360
-84362
-84355
-84345
-84333
-84334
-84325
-84309
-84298
-84287
-84276
-84268
-84247
-84226
-84217
-84207
-84188
-84164
-84145
-84126
-84103
-84083
-84067
-84052
-84023
-83994
-83972
-83952
-83920
-83893
-83877
-83855
-83833
-83814
-83795
-83776
-83755
-83726
-83701
-83687
-83669
-83647
-83620
-83602
-83581
-83553
-83544
-83531
-83509
-83486
-83472
-83461
-83456
-83443
-83423
-83412
-83400
-83394
-83380
-83364
-83364
-83360
-83349
-83340
-83324
-83314
-83318
-83323
-83317
-83308
-83303
-83295
-83292
-83299
-83292
-83285
-83298
-83298
-83308
-83322
-83320
-83312
-83318
-83323
-83321
-83324
-83338
-83338
-83336
-83337
-83330
-83331
-83335
-83342
-83350
-83348
-83344
-83350
-83358
-83360
-83367
-83375
-83370
-83367
-83371
-83382
-83379
-83377
-83386
-83388
-83391
-83394
-83384
-83389
-83403
-83399
-83395
-83388
-83396
-83405
-83412
-83420
-83416
-83416
-83425
-83429
-83429
-83432
-83435
-83440
-83445
-83443
-83444
-83459
-83463
-83465
-83471
-83466
-83476
-83486
-83482
-83479
-83489
-83501
-83493
-83490
-83497
-83503
-83506
-83505
-83507
-83509
-83513
-83517
-83521
-83519
-83513
-83514
-83515
-83511
-83510
-83508
-83512
-83513
-83500
-83500
-83505
-83503
-83491
-83492
-83489
-83491
-83488
-83480
-83474
-83470
-83470
-83459
-83455
-83461
-83455
-83456
-83451
-83441
-83441
-83435
-83430
-83426
-83419
-83403
-83394
-83405
-83403
-83394
-83397
-83392
-83370
-83371
-83385
-83382
-83388
-83384
-83371
-83372
-83376
-83368
-83375
-83374
-83369
-83371
-83365
-83363
-83378
-83381
-83376
-83377
-83375
-83372
-83371
-83380
-83382
-83394
-83411
-83400
-83395
-83406
-83423
-83436
-83433
-83426
-83426
-83432
-83436
-83449
-83454
-83462
-83473
-83478
-83474
-83472
-83483
-83489
-83482
-83482
-83494
-83497
-83507
-83508
-83510
-83517
-83527
-83537
-83542
-83547
-83555
-83560
-83564
-83575
-83577
-83579
-83591
-83606
-83593
-83590
-83607
-83608
-83607
-83614
-83621
-83631
-83648
-83650
-83653
-83667
-83670
-83668
-83662
-83673
-83678
-83675
-83686
-83696
-83707
-83706
-83712
-83722
-83721
-83724
-83738
-83745
-83748
-83738
-83740
-83751
-83749
-83753
-83756
-83759
-83760
-83753
-83754
-83767
-83769
-83767
-83767
-83768
-83772
-83780
-83784
-83789
-83791
-83785
-83785
-83789
-83786
-83782
-83787
-83793
-83808
-83801
-83799
-83813
-83818
-83806
-83797
-83791
-83795
-83799
-83807
-83815
-83822
-83817
-83817
-83825
-83824
-83824
-83830
-83835
-83831
-83828
-83835
-83835
-83834
-83833
-83828
-83826
-83841
-83845
-83845
-83844
-83846
-83848
-83855
-83859
-83864
-83861
-83850
-83843
-83852
-83856
-83861
-83863
-83860
-83862
-83864
-83864
-83868
-83881
-83881
-83876
-83867
-83878
-83879
-83875
-83876
-83890
-83892
-83887
-83894
-83895
-83898
-83898
-83897
-83894
-83900
-83904
-83905
-83911
-83910
-83910
-83904
-83915
-83917
-83909
-83919
-83933
-83923
-83922
-83930
-83934
-83946
-83936
-83932
-83939
-83944
-83958
-83957
-83962
-83958
-83953
-83957
-83956
-83964
-83978
-83988
-83987
-83987
-83981
-83981
-83985
-83989
-83995
-84001
-84010
-84012
-84018
-84017
-84016
-84018
-84010
-84009
-84024
-84036
-84035
-84031
-84033
-84037
-84034
-84038
-84052
-84060
-84053
-84043
-84050
-84056
-84060
-84064
-84066
-84085
-84092
-84076
-84076
-84087
-84097
-84094
-84081
-84077
-84078
-84093
-84097
-84102
-84092
-84085
-84101
-84101
-84104
-84110
-84126
-84133
-84118
-84123
-84133
-84135
-84137
-84141
-84143
-84138
-84136
-84146
-84157
-84144
-84138
-84139
-84141
-84147
-84156
-84172
-84173
-84171
-84169
-84175
-84174
-84180
-84182
-84184
-84187
-84187
-84193
-84201
-84204
-84202
-84201
-84204
-84211
-84216
-84215
-84221
-84228
-84224
-84226
-84236
-84238
-84240
-84238
-84232
-84235
-84245
-84251
-84250
-84255
-84261
-84255
-84249
-84249
-84251
-84260
-84272
-84270
-84267
-84273
-84274
-84274
-84283
-84288
-84286
-84280
-84277
-84279
-84279
-84286
-84284
-84269
-84279
-84279
-84279
-84275
-84268
-84268
-84262
-84253
-84251
-84247
-84234
-84225
-84214
-84208
-84194
-84161
-84144
-84145
-84136
-84119
-84111
-84099
-84078
-84065
-84043
-84028
-84007
-83989
-83963
-83936
-83911
-83888
-83872
-83852
-83826
-83800
-83777
-83763
-83743
-83720
-83694
-83666
-83652
-83647
-83615
-83579
-83574
-83560
-83545
-83534
-83508
-83485
-83479
-83462
-83435
-83415
-83410
-83396
-83388
-83377
-83359
-83345
-83325
-83324
-83331
-83313
-83300
-83298
-83290
-83276
-83267
-83268
-83271
-83266
-83257
-83250
-83248
-83243
-83240
-83240
-83257
-83249
-83243
-83243
-83241
-83235
-83243
-83251
-83248
-83250
-83251
-83248
-83249
-83257
-83266
-83266
-83268
-83281
-83284
-83281
-83280
-83281
-83285
-83287
-83287
-83291
-83302
-83308
-83313
-83314
-83310
-83320
-83321
-83319
-83320
-83330
-83329
-83329
-83323
-83323
-83330
-83318
-83326
-83339
-83347
-83347
-83344
-83349
-83355
-83357
-83355
-83363
-83371
-83375
-83378
-83380
-83385
-83391
-83389
-83391
-83400
-83403
-83405
-83410
-83418
-83425
-83426
-83424
-83423
-83426
-83429
-83428
-83422
-83425
-83438
-83438
-83435
-83428
-83426
-83427
-83415
-83419
-83423
-83419
-83428
-83415
-83408
-83417
-83418
-83414
-83414
-83403
-83387
-83393
-83396
-83381
-83390
-83392
-83378
-83372
-83370
-83355
-83355
-83360
-83357
-83342
-83337
-83335
-83328
-83327
-83327
-83324
-83321
-83313
-83301
-83300
-83293
-83291
-83291
-83283
-83275
-83266
-83261
-83262
-83260
-83253
-83244
-83240
-83244
-83246
-83241
-83239
-83237
-83239
-83239
-83233
-83230
-83240
-83236
-83238
-83244
-83245
-83249
-83247
-83247
-83253
-83249
-83248
-83252
-83264
-83263
-83255
-83254
-83259
-83271
-83273
-83276
-83277
-83280
-83287
-83298
-83300
-83314
-83317
-83314
-83316
-83320
-83335
-83336
-83321
-83324
-83343
-83356
-83360
-83354
-83361
-83366
-83369
-83388
-83389
-83379
-83376
-83388
-83394
-83397
-83398
-83398
-83410
-83416
-83420
-83424
-83432
-83441
-83451
-83456
-83451
-83460
-83472
-83466
-83474
-83488
-83496
-83494
-83500
-83499
-83497
-83500
-83509
-83522
-83528
-83533
-83537
-83539
-83535
-83538
-83537
-83546
-83549
-83556
-83563
-83572
-83569
-83558
-83558
-83564
-83581
-83586
-83577
-83576
-83584
-83583
-83586
-83599
-83598
-83595
-83601
-83605
-83605
-83604
-83614
-83615
-83615
-83612
-83608
-83615
-83622
-83623
-83619
-83621
-83623
-83635
-83627
-83623
-83625
-83622
-83626
-83618
-83628
-83632
-83625
-83625
-83638
-83643
-83632
-83629
-83634
-83646
-83645
-83644
-83646
-83653
-83659
-83660
-83659
-83663
-83665
-83665
-83660
-83659
-83660
-83657
-83667
-83661
-83651
-83661
-83674
-83672
-83665
-83667
-83672
-83675
-83677
-83684
-83682
-83698
-83715
-83706
-83696
-83697
-83701
-83699
-83695
-83701
-83706
-83718
-83712
-83711
-83723
-83728
-83727
-83734
-83739
-83746
-83748
-83743
-83743
-83746
-83744
-83747
-83748
-83752
-83759
-83765
-83773
-83769
-83770
-83776
-83772
-83770
-83785
-83793
-83803
-83798
-83806
-83809
-83806
-83813
-83819
-83824
-83827
-83826
-83832
-83841
-83849
-83849
-83843
-83841
-83849
-83855
-83855
-83867
-83859
-83859
-83868
-83878
-83876
-83876
-83894
-83904
-83893
-83897
-83901
-83909
-83915
-83924
-83920
-83916
-83920
-83927
-83941
-83940
-83933
-83946
-83960
-83950
-83944
-83955
-83960
-83962
-83960
-83978
-83974
-83971
-83979
-83987
-83997
-83997
-84005
-84022
-84026
-84012
-84006
-84015
-84030
-84039
-84044
-84045
-84036
-84039
-84049
-84057
-84061
-84061
-84065
-84066
-84072
-84083
-84095
-84091
-84097
-84107
-84100
-84102
-84118
-84121
-84115
-84116
-84118
-84127
-84130
-84120
-84122
-84131
-84145
-84142
-84139
-84147
-84155
-84159
-84171
-84174
-84180
-84194
-84188
-84193
-84200
-84205
-84208
-84210
-84206
-84214
-84225
-84215
-84215
-84221
-84228
-84229
-84228
-84235
-84242
-84241
-84241
-84242
-84232
-84238
-84247
-84236
-84227
-84232
-84230
-84219
-84222
-84224
-84219
-84206
-84192
-84182
-84173
-84151
-84141
-84132
-84115
-84094
-84073
-84062
-84047
-84027
-84016
-84005
-83984
-83979
-83975
-83952
-83925
-83907
-83892
-83871
-83862
-83854
-83824
-83808
-83790
-83759
-83735
-83725
-83723
-83719
-83695
-83663
-83645
-83629
-83610
-83607
-83591
-83577
-83564
-83546
-83537
-83524
-83523
-83508
-83483
-83480
-83474
-83461
-83457
-83459
-83452
-83450
-83444
-83442
-83439
-83436
-83433
-83422
-83419
-83431
-83426
-83418
-83425
-83433
-83428
-83421
-83427
-83433
-83429
-83426
-83427
-83447
-83455
-83459
-83455
-83459
-83465
-83458
-83463
-83468
-83486
-83486
-83482
-83491
-83501
-83505
-83501
-83508
-83519
-83523
-83524
-83524
-83531
-83542
-83539
-83538
-83536
-83541
-83546
-83554
-83565
-83576
-83578
-83576
-83581
-83584
-83587
-83590
-83589
-83598
-83610
-83609
-83613
-83614
-83625
-83633
-83642
-83642
-83648
-83655
-83657
-83671
-83682
-83678
-83668
-83677
-83689
-83683
-83693
-83718
-83717
-83712
-83714
-83722
-83722
-83728
-83722
-83725
-83732
-83736
-83718
-83722
-83727
-83728
-83737
-83742
-83741
-83742
-83743
-83729
-83724
-83726
-83723
-83720
-83726
-83731
-83739
-83731
-83724
-83717
-83708
-83716
-83725
-83725
-83716
-83709
-83698
-83689
-83689
-83685
-83684
-83693
-83700
-83682
-83668
-83662
-83664
-83663
-83664
-83661
-83644
-83632
-83635
-83633
-83644
-83648
-83643
-83634
-83621
-83619
-83621
-83614
-83612
-83611
-83619
-83619
-83623
-83612
-83605
-83616
-83615
-83609
-83620
-83632
-83631
-83629
-83632
-83637
-83646
-83647
-83647
-83643
-83654
-83655
-83654
-83665
-83682
-83683
-83678
-83689
-83692
-83688
-83693
-83706
-83716
-83724
-83721
-83730
-83743
-83736
-83740
-83741
-83746
-83760
-83765
-83767
-83767
-83774
-83782
-83786
-83787
-83799
-83807
-83806
-83809
-83818
-83828
-83832
-83835
-83830
-83838
-83843
-83848
-83860
-83864
-83873
-83875
-83882
-83889
-83891
-83891
-83900
-83904
-83914
-83920
-83929
-83936
-83935
-83939
-83950
-83956
-83957
-83956
-83947
-83955
-83964
-83977
-83979
-83983
-83986
-83989
-84001
-84001
-84000
-84004
-84010
-84018
-84012
-84014
-84026
-84035
-84037
-84037
-84049
-84045
-84046
-84048
-84049
-84051
-84052
-84054
-84048
-84051
-84060
-84065
-84064
-84072
-84072
-84071
-84076
-84084
-84085
-84089
-84084
-84087
-84095
-84094
-84102
-84101
-84102
-84097
-84091
-84094
-84094
-84094
-84093
-84105
-84110
-84114
-84126
-84125
-84123
-84122
-84131
-84132
-84129
-84131
-84137
-84145
-84150
-84151
-84140
-84138
-84146
-84151
-84145
-84137
-84145
-84157
-84168
-84167
-84167
-84164
-84157
-84158
-84174
-84172
-84173
-84185
-84179
-84179
-84183
-84180
-84189
-84194
-84200
-84200
-84192
-84189
-84199
-84202
-84204
-84207
-84211
-84217
-84209
-84206
-84212
-84222
-84225
-84230
-84237
-84237
-84240
-84248
-84244
-84254
-84255
-84262
-84264
-84265
-84267
-84263
-84272
-84277
-84284
-84280
-84278
-84290
-84296
-84293
-84298
-84316
-84321
-84307
-84310
-84316
-84325
-84335
-84340
-84340
-84338
-84341
-84348
-84359
-84350
-84352
-84361
-84371
-84363
-84372
-84374
-84376
-84389
-84390
-84396
-84396
-84402
-84401
-84406
-84419
-84418
-84417
-84425
-84427
-84422
-84425
-84438
-84449
-84456
-84452
-84451
-84446
-84449
-84448
-84452
-84467
-84472
-84470
-84468
-84480
-84487
-84496
-84503
-84506
-84516
-84513
-84512
-84518
-84520
-84519
-84531
-84535
-84532
-84542
-84549
-84537
-84541
-84550
-84556
-84558
-84565
-84574
-84579
-84575
-84570
-84575
-84584
-84584
-84595
-84603
-84608
-84609
-84611
-84621
-84622
-84625
-84626
-84630
-84629
-84635
-84643
-84637
-84642
-84657
-84665
-84662
-84660
-84664
-84665
-84670
-84672
-84677
-84685
-84694
-84698
-84698
-84698
-84700
-84700
-84702
-84697
-84699
-84710
-84727
-84728
-84713
-84715
-84712
-84719
-84721
-84708
-84700
-84703
-84695
-84703
-84705
-84692
-84685
-84684
-84666
-84645
-84639
-84637
-84612
-84602
-84595
-84571
-84557
-84541
-84537
-84531
-84505
-84481
-84470
-84459
-84433
-84415
-84397
-84370
-84348
-84329
-84318
-84294
-84276
-84264
-84244
-84235
-84225
-84190
-84168
-84154
-84130
-84112
-84098
-84078
-84067
-84044
-84016
-83998
-83992
-83983
-83969
-83951
-83935
-83927
-83914
-83897
-83886
-83886
-83880
-83859
-83848
-83855
-83854
-83844
-83830
-83820
-83817
-83812
-83808
-83796
-83805
-83808
-83799
-83793
-83795
-83790
-83792
-83811
-83818
-83813
-83809
-83803
-83811
-83815
-83801
-83801
-83803
-83811
-83810
-83809
-83818
-83821
-83817
-83815
-83828
-83836
-83837
-83835
-83835
-83849
-83849
-83841
-83847
-83853
-83854
-83858
-83867
-83864
-83855
-83856
-83866
-83873
-83878
-83881
-83872
-83868
-83884
-83884
-83872
-83883
-83892
-83884
-83881
-83897
-83905
-83904
-83896
-83892
-83907
-83921
-83920
-83923
-83926
-83929
-83932
-83940
-83937
-83932
-83938
-83944
-83944
-83954
-83954
-83956
-83960
-83959
-83965
-83970
-83967
-83966
-83972
-83975
-83963
-83963
-83975
-83985
-83984
-83978
-83976
-83968
-83961
-83966
-83975
-83977
-83969
-83964
-83976
-83969
-83959
-83963
-83964
-83955
-83953
-83947
-83940
-83936
-83946
-83941
-83932
-83928
-83922
-83912
-83904
-83900
-83901
-83900
-83893
-83882
-83875
-83886
-83879
-83865
-83871
-83865
-83862
-83866
-83861
-83863
-83868
-83862
-83854
-83844
-83845
-83846
-83831
-83836
-83844
-83840
-83841
-83842
-83853
-83846
-83841
-83845
-83842
-83848
-83849
-83850
-83855
-83852
-83847
-83843
-83855
-83869
-83859
-83863
-83872
-83863
-83867
-83884
-83881
-83887
-83899
-83905
-83904
-83902
-83911
-83914
-83914
-83915
-83922
-83925
-83928
-83940
-83945
-83937
-83948
-83956
-83959
-83966
-83967
-83977
-83982
-83993
-83994
-84002
-84002
-84002
-84007
-84013
-84022
-84031
-84037
-84037
-84035
-84037
-84044
-84054
-84059
-84067
-84070
-84066
-84070
-84067
-84067
-84076
-84082
-84087
-84088
-84097
-84109
-84107
-84102
-84115
-84122
-84131
-84134
-84140
-84144
-84147
-84150
-84153
-84158
-84154
-84154
-84150
-84159
-84168
-84168
-84167
-84177
-84184
-84185
-84185
-84187
-84189
-84194
-84200
-84192
-84198
-84211
-84209
-84213
-84210
-84219
-84222
-84224
-84225
-84216
-84220
-84231
-84233
-84227
-84231
-84230
-84233
-84234
-84241
-84239
-84240
-84251
-84253
-84251
-84250
-84250
-84250
-84255
-84254
-84259
-84263
-84257
-84253
-84258
-84262
-84268
-84272
-84272
-84276
-84275
-84275
-84275
-84268
-84266
-84275
-84272
-84280
-84299
-84300
-84298
-84302
-84293
-84288
-84289
-84295
-84298
-84297
-84304
-84298
-84304
-84305
-84310
-84313
-84318
-84324
-84324
-84324
-84333
-84331
-84325
-84325
-84321
-84322
-84331
-84337
-84331
-84342
-84331
-84322
-84341
-84348
-84336
-84332
-84352
-84358
-84345
-84354
-84360
-84370
-84378
-84381
-84382
-84383
-84382
-84388
-84399
-84397
-84397
-84401
-84409
-84406
-84411
-84415
-84416
-84418
-84418
-84435
-84437
-84442
-84442
-84444
-84450
-84439
-84443
-84457
-84452
-84444
-84442
-84448
-84459
-84471
-84480
-84481
-84480
-84481
-84486
-84488
-84484
-84493
-84494
-84481
-84489
-84496
-84498
-84508
-84511
-84514
-84519
-84519
-84523
-84527
-84529
-84530
-84527
-84526
-84534
-84541
-84546
-84551
-84557
-84564
-84566
-84570
-84573
-84569
-84574
-84581
-84583
-84596
-84581
-84587
-84600
-84600
-84600
-84605
-84604
-84608
-84616
-84619
-84620
-84623
-84630
-84642
-84639
-84640
-84634
-84634
-84641
-84642
-84648
-84657
-84660
-84660
-84657
-84662
-84666
-84675
-84689
-84689
-84696
-84701
-84700
-84700
-84703
-84709
-84726
-84728
-84721
-84716
-84721
-84736
-84750
-84736
-84731
-84741
-84740
-84749
-84768
-84768
-84754
-84753
-84759
-84763
-84768
-84774
-84772
-84780
-84784
-84765
-84763
-84772
-84787
-84803
-84800
-84790
-84795
-84806
-84806
-84808
-84813
-84805
-84797
-84787
-84795
-84790
-84772
-84769
-84774
-84782
-84769
-84749
-84737
-84737
-84715
-84696
-84684
-84677
-84669
-84650
-84636
-84619
-84601
-84578
-84554
-84539
-84529
-84516
-84499
-84489
-84470
-84444
-84419
-84398
-84386
-84371
-84342
-84331
-84314
-84292
-84271
-84256
-84248
-84226
-84201
-84176
-84154
-84137
-84136
-84126
-84097
-84080
-84073
-84062
-84047
-84031
-84027
-84014
-84001
-83992
-83979
-83975
-83963
-83955
-83955
-83944
-83922
-83907
-83907
-83904
-83901
-83892
-83886
-83893
-83895
-83890
-83880
-83878
-83880
-83887
-83893
-83890
-83892
-83893
-83883
-83889
-83898
-83895
-83885
-83886
-83900
-83891
-83880
-83889
-83906
-83908
-83906
-83920
-83919
-83915
-83913
-83917
-83925
-83929
-83919
-83928
-83935
-83936
-83931
-83927
-83941
-83953
-83949
-83953
-83944
-83953
-83951
-83951
-83960
-83956
-83962
-83961
-83956
-83956
-83966
-83965
-83962
-83974
-83977
-83979
-83980
-83981
-83990
-83992
-83989
-83997
-84011
-84016
-84010
-84006
-84016
-84015
-84015
-84026
-84032
-84032
-84028
-84024
-84024
-84022
-84025
-84025
-84021
-84030
-84034
-84032
-84028
-84029
-84034
-84032
-84033
-84024
-84025
-84026
-84016
-84008
-84013
-84018
-84009
-83999
-84010
-84012
-84012
-84010
-84007
-83993
-83991
-83990
-83981
-83982
-83986
-83984
-83970
-83963
-83964
-83956
-83953
-83964
-83961
-83946
-83936
-83930
-83937
-83935
-83924
-83917
-83924
-83927
-83921
-83914
-83905
-83902
-83897
-83893
-83889
-83882
-83883
-83887
-83889
-83883
-83886
-83884
-83876
-83868
-83873
-83885
-83882
-83881
-83880
-83889
-83889
-83889
-83886
-83881
-83872
-83881
-83883
-83884
-83891
-83896
-83884
-83882
-83890
-83895
-83897
-83905
-83904
-83910
-83918
-83921
-83924
-83928
-83924
-83929
-83932
-83940
-83948
-83947
-83949
-83947
-83949
-83952
-83960
-83967
-83967
-83964
-83972
-83987
-83984
-83989
-83986
-83989
-84005
-84016
-84021
-84019
-84024
-84023
-84021
-84023
-84034
-84039
-84031
-84030
-84041
-84047
-84047
-84040
-84043
-84048
-84055
-84069
-84072
-84075
-84079
-84079
-84089
-84091
-84093
-84098
-84109
-84102
-84087
-84103
-84117
-84104
-84096
-84105
-84113
-84115
-84105
-84106
-84112
-84116
-84127
-84115
-84116
-84130
-84125
-84117
-84110
-84111
-84123
-84120
-84121
-84129
-84133
-84133
-84133
-84135
-84129
-84127
-84134
-84130
-84133
-84139
-84135
-84140
-84133
-84131
-84138
-84138
-84143
-84146
-84149
-84143
-84140
-84136
-84143
-84144
-84138
-84130
-84138
-84137
-84140
-84143
-84148
-84151
-84144
-84140
-84148
-84147
-84157
-84165
-84159
-84159
-84160
-84161
-84164
-84163
-84137
-84128
-84143
-84150
-84145
-84143
-84157
-84164
-84149
-84150
-84146
-84148
-84148
-84151
-84155
-84149
-84144
-84140
-84146
-84150
-84150
-84151
-84155
-84157
-84161
-84169
-84166
-84165
-84166
-84171
-84159
-84158
-84165
-84175
-84178
-84176
-84175
-84184
-84189
-84186
-84172
-84176
-84190
-84187
-84185
-84192
-84187
-84177
-84178
-84184
-84194
-84206
-84203
-84199
-84213
-84216
-84216
-84213
-84208
-84209
-84205
-84204
-84208
-84212
-84217
-84219
-84227
-84220
-84223
-84231
-84226
-84218
-84221
-84226
-84223
-84225
-84232
-84230
-84229
-84230
-84235
-84241
-84231
-84230
-84242
-84248
-84255
-84256
-84250
-84259
-84266
-84258
-84255
-84256
-84262
-84268
-84267
-84278
-84285
-84282
-84276
-84275
-84278
-84279
-84284
-84288
-84288
-84296
-84295
-84287
-84287
-84290
-84293
-84290
-84288
-84288
-84288
-84294
-84307
-84310
-84304
-84306
-84308
-84309
-84315
-84310
-84314
-84318
-84310
-84331
-84347
-84347
-84332
-84332
-84349
-84351
-84349
-84350
-84345
-84356
-84352
-84337
-84331
-84340
-84354
-84364
-84355
-84347
-84353
-84352
-84355
-84372
-84375
-84366
-84366
-84372
-84382
-84375
-84375
-84378
-84381
-84392
-84392
-84381
-84386
-84392
-84394
-84391
-84395
-84404
-84407
-84398
-84397
-84406
-84411
-84414
-84413
-84420
-84422
-84422
-84413
-84415
-84420
-84427
-84434
-84433
-84431
-84435
-84432
-84425
-84419
-84418
-84409
-84399
-84397
-84390
-84384
-84372
-84366
-84364
-84356
-84348
-84332
-84325
-84316
-84302
-84292
-84282
-84273
-84256
-84228
-84223
-84211
-84192
-84175
-84153
-84133
-84113
-84102
-84083
-84062
-84041
-84026
-84018
-84005
-83984
-83958
-83935
-83914
-83899
-83884
-83863
-83847
-83826
-83813
-83799
-83780
-83763
-83741
-83729
-83710
-83693
-83684
-83670
-83648
-83644
-83640
-83622
-83611
-83614
-83604
-83590
-83573
-83560
-83564
-83562
-83537
-83532
-83533
-83523
-83523
-83527
-83523
-83511
-83498
-83491
-83491
-83500
-83497
-83492
-83492
-83497
-83499
-83496
-83488
-83494
-83491
-83496
-83502
-83505
-83505
-83510
-83506
-83503
-83513
-83508
-83498
-83512
-83532
-83533
-83527
-83529
-83534
-83538
-83533
-83526
-83526
-83536
-83531
-83532
-83542
-83542
-83549
-83542
-83545
-83556
-83561
-83553
-83553
-83562
-83564
-83566
-83570
-83567
-83567
-83579
-83587
-83593
-83598
-83594
-83590
-83594
-83600
-83604
-83609
-83608
-83611
-83614
-83623
-83631
-83630
-83635
-83643
-83651
-83645
-83646
-83654
-83650
-83651
-83663
-83665
-83659
-83649
-83654
-83661
-83656
-83657
-83658
-83664
-83660
-83656
-83649
-83641
-83637
-83634
-83634
-83635
-83640
-83636
-83629
-83631
-83632
-83621
-83614
-83616
-83614
-83611
-83614
-83611
-83620
-83612
-83596
-83592
-83587
-83586
-83573
-83565
-83564
-83560
-83558
-83556
-83556
-83551
-83545
-83532
-83529
-83530
-83530
-83522
-83515
-83519
-83515
-83500
-83496
-83497
-83505
-83502
-83505
-83504
-83499
-83500
-83493
-83482
-83492
-83498
-83502
-83501
-83494
-83490
-83495
-83496
-83499
-83494
-83496
-83507
-83505
-83510
-83512
-83514
-83511
-83506
-83505
-83522
-83534
-83533
-83531
-83529
-83531
-83543
-83551
-83545
-83549
-83560
-83562
-83566
-83572
-83577
-83587
-83600
-83595
-83605
-83607
-83608
-83610
-83610
-83617
-83638
-83634
-83628
-83639
-83647
-83646
-83644
-83664
-83679
-83682
-83695
-83691
-83690
-83701
-83701
-83698
-83694
-83703
-83716
-83718
-83718
-83733
-83735
-83736
-83744
-83751
-83759
-83755
-83764
-83763
-83768
-83769
-83768
-83776
-83770
-83780
-83785
-83788
-83803
-83818
-83811
-83810
-83822
-83832
-83838
-83835
-83840
-83844
-83854
-83849
-83846
-83850
-83851
-83852
-83847
-83851
-83855
-83858
-83861
-83866
-83866
-83863
-83867
-83869
-83858
-83859
-83855
-83855
-83873
-83883
-83871
-83867
-83882
-83890
-83881
-83883
-83879
-83885
-83891
-83891
-83891
-83893
-83893
-83894
-83904
-83908
-83907
-83897
-83903
-83911
-83914
-83913
-83914
-83917
-83916
-83923
-83920
-83918
-83914
-83921
-83920
-83912
-83921
-83929
-83932
-83933
-83931
-83932
-83928
-83940
-83944
-83945
-83945
-83941
-83936
-83944
-83943
-83946
-83946
-83945
-83951
-83956
-83958
-83962
-83972
-83965
-83963
-83977
-83985
-83982
-83985
-83986
-83989
-83992
-83990
-83996
-83995
-83997
-84007
-84014
-84016
-84011
-84013
-84013
-84021
-84023
-84031
-84038
-84023
-84021
-84029
-84035
-84040
-84044
-84045
-84046
-84050
-84046
-84058
-84063
-84059
-84064
-84064
-84071
-84074
-84072
-84077
-84079
-84089
-84094
-84096
-84105
-84111
-84112
-84104
-84111
-84122
-84122
-84120
-84124
-84131
-84134
-84135
-84152
-84165
-84161
-84152
-84146
-84142
-84153
-84166
-84165
-84173
-84183
-84176
-84190
-84204
-84208
-84207
-84213
-84219
-84216
-84209
-84214
-84218
-84231
-84241
-84234
-84228
-84240
-84257
-84268
-84261
-84256
-84264
-84268
-84272
-84274
-84284
-84290
-84287
-84288
-84304
-84306
-84301
-84314
-84321
-84325
-84324
-84313
-84313
-84331
-84333
-84335
-84339
-84346
-84342
-84338
-84355
-84362
-84365
-84367
-84369
-84378
-84385
-84384
-84372
-84377
-84386
-84390
-84395
-84394
-84392
-84393
-84394
-84399
-84392
-84388
-84392
-84394
-84393
-84383
-84381
-84371
-84368
-84360
-84349
-84335
-84330
-84320
-84315
-84310
-84289
-84273
-84271
-84254
-84224
-84218
-84206
-84186
-84162
-84151
-84151
-84132
-84101
-84077
-84070
-84048
-84030
-84019
-84000
-83983
-83958
-83932
-83910
-83903
-83890
-83869
-83848
-83836
-83825
-83812
-83795
-83776
-83750
-83737
-83712
-83696
-83683
-83664
-83645
-83642
-83634
-83613
-83602
-83605
-83590
-83576
-83560
-83555
-83562
-83549
-83522
-83521
-83523
-83522
-83515
-83508
-83511
-83509
-83506
-83501
-83496
-83498
-83503
-83504
-83504
-83506
-83501
-83497
-83495
-83500
-83498
-83502
-83506
-83507
-83510
-83519
-83513
-83511
-83523
-83523
-83524
-83529
-83543
-83539
-83542
-83537
-83547
-83546
-83540
-83546
-83548
-83553
-83565
-83560
-83561
-83571
-83579
-83579
-83578
-83589
-83598
-83588
-83585
-83588
-83599
-83604
-83611
-83605
-83615
-83628
-83621
-83620
-83620
-83624
-83630
-83638
-83652
-83658
-83663
-83663
-83665
-83651
-83652
-83660
-83664
-83676
-83684
-83688
-83681
-83681
-83692
-83693
-83698
-83718
-83719
-83710
-83703
-83713
-83727
-83728
-83725
-83718
-83726
-83730
-83730
-83721
-83716
-83706
-83700
-83698
-83697
-83706
-83705
-83693
-83686
-83681
-83682
-83679
-83668
-83665
-83664
-83663
-83665
-83666
-83651
-83641
-83648
-83656
-83644
-83630
-83631
-83628
-83623
-83621
-83613
-83612
-83608
-83603
-83592
-83592
-83600
-83603
-83588
-83573
-83582
-83590
-83581
-83574
-83569
-83568
-83566
-83570
-83568
-83563
-83560
-83560
-83560
-83558
-83552
-83564
-83566
-83565
-83560
-83564
-83559
-83564
-83566
-83574
-83582
-83582
-83582
-83581
-83584
-83583
-83582
-83589
-83595
-83601
-83605
-83607
-83613
-83616
-83614
-83622
-83626
-83617
-83621
-83637
-83646
-83662
-83664
-83660
-83666
-83670
-83680
-83682
-83688
-83700
-83703
-83707
-83724
-83722
-83731
-83734
-83739
-83736
-83737
-83751
-83748
-83750
-83763
-83763
-83774
-83793
-83796
-83782
-83777
-83781
-83789
-83800
-83808
-83812
-83812
-83806
-83814
-83831
-83833
-83840
-83845
-83849
-83853
-83851
-83845
-83854
-83866
-83868
-83874
-83882
-83887
-83894
-83893
-83882
-83891
-83907
-83912
-83908
-83914
-83917
-83923
-83918
-83914
-83912
-83914
-83919
-83923
-83916
-83916
-83915
-83934
-83942
-83940
-83942
-83945
-83950
-83948
-83945
-83934
-83935
-83950
-83957
-83949
-83952
-83961
-83966
-83953
-83956
-83958
-83951
-83962
-83974
-83968
-83957
-83956
-83962
-83974
-83977
-83970
-83969
-83983
-83982
-83977
-83980
-83983
-83990
-84001
-84004
-83988
-83993
-83992
-83996
-84004
-83998
-83991
-84003
-84009
-84000
-84000
-84008
-84004
-83998
-84013
-84024
-84017
-84016
-84016
-84026
-84032
-84033
-84025
-84027
-84033
-84025
-84036
-84030
-84032
-84042
-84040
-84048
-84052
-84054
-84051
-84053
-84053
-84062
-84070
-84069
-84069
-84064
-84069
-84079
-84082
-84084
-84083
-84087
-84093
-84088
-84092
-84101
-84092
-84099
-84101
-84104
-84108
-84111
-84116
-84119
-84122
-84118
-84132
-84130
-84136
-84145
-84144
-84149
-84150
-84150
-84149
-84144
-84143
-84152
-84159
-84167
-84172
-84172
-84182
-84189
-84188
-84195
-84202
-84198
-84196
-84196
-84201
-84214
-84222
-84218
-84206
-84211
-84220
-84223
-84226
-84222
-84227
-84238
-84234
-84247
-84261
-84260
-84260
-84268
-84271
-84268
-84267
-84276
-84277
-84282
-84282
-84271
-84268
-84280
-84302
-84323
-84320
-84315
-84307
-84307
-84316
-84332
-84329
-84321
-84325
-84334
-84351
-84345
-84334
-84335
-84352
-84368
-84370
-84359
-84353
-84356
-84352
-84358
-84372
-84378
-84384
-84382
-84378
-84371
-84373
-84381
-84393
-84394
-84397
-84400
-84396
-84407
-84411
-84414
-84423
-84424
-84425
-84431
-84430
-84439
-84444
-84437
-84438
-84450
-84455
-84453
-84464
-84468
-84476
-84472
-84461
-84464
-84468
-84472
-84478
-84479
-84480
-84476
-84480
-84479
-84469
-84475
-84476
-84468
-84464
-84461
-84449
-84434
-84420
-84413
-84415
-84400
-84392
-84392
-84377
-84363
-84346
-84333
-84314
-84295
-84268
-84245
-84243
-84225
-84198
-84176
-84157
-84148
-84119
-84091
-84060
-84033
-84018
-83993
-83971
-83964
-83940
-83904
-83878
-83877
-83866
-83841
-83802
-83775
-83761
-83737
-83697
-83685
-83678
-83657
-83631
-83608
-83584
-83563
-83543
-83529
-83521
-83515
-83494
-83472
-83466
-83463
-83453
-83435
-83417
-83411
-83398
-83397
-83401
-83397
-83381
-83373
-83357
-83347
-83355
-83349
-83338
-83335
-83338
-83336
-83339
-83341
-83346
-83332
-83326
-83335
-83334
-83332
-83336
-83341
-83350
-83355
-83356
-83350
-83346
-83362
-83369
-83360
-83358
-83363
-83369
-83373
-83373
-83363
-83365
-83374
-83374
-83377
-83382
-83382
-83379
-83385
-83394
-83393
-83389
-83385
-83394
-83391
-83394
-83404
-83404
-83408
-83406
-83404
-83410
-83418
-83429
-83420
-83410
-83423
-83430
-83428
-83424
-83430
-83432
-83433
-83436
-83443
-83450
-83452
-83446
-83449
-83464
-83463
-83465
-83475
-83479
-83481
-83481
-83476
-83485
-83487
-83483
-83484
-83485
-83485
-83477
-83472
-83477
-83485
-83484
-83478
-83481
-83479
-83474
-83468
-83464
-83469
-83465
-83463
-83459
-83467
-83461
-83449
-83441
-83446
-83448
-83447
-83435
-83431
-83430
-83431
-83435
-83435
-83429
-83415
-83395
-83397
-83401
-83390
-83383
-83382
-83366
-83365
-83360
-83354
-83351
-83348
-83346
-83348
-83340
-83338
-83328
-83322
-83331
-83333
-83329
-83328
-83331
-83320
-83316
-83307
-83305
-83315
-83311
-83304
-83310
-83315
-83316
-83310
-83308
-83310
-83322
-83331
-83332
-83334
-83332
-83339
-83347
-83334
-83342
-83343
-83345
-83352
-83345
-83361
-83380
-83378
-83367
-83381
-83389
-83384
-83391
-83406
-83406
-83411
-83418
-83415
-83425
-83431
-83430
-83430
-83435
-83441
-83451
-83463
-83466
-83467
-83475
-83479
-83489
-83500
-83495
-83503
-83505
-83504
-83515
-83529
-83529
-83535
-83525
-83526
-83547
-83559
-83564
-83574
-83573
-83574
-83579
-83582
-83590
-83589
-83595
-83603
-83610
-83613
-83620
-83627
-83623
-83624
-83638
-83641
-83644
-83644
-83658
-83667
-83668
-83665
-83664
-83672
-83677
-83678
-83658
-83663
-83680
-83680
-83671
-83684
-83707
-83706
-83687
-83682
-83687
-83697
-83706
-83715
-83722
-83709
-83699
-83699
-83714
-83720
-83720
-83722
-83731
-83737
-83732
-83729
-83740
-83742
-83732
-83737
-83732
-83732
-83736
-83743
-83746
-83746
-83756
-83763
-83766
-83763
-83763
-83764
-83761
-83761
-83771
-83774
-83772
-83772
-83772
-83776
-83772
-83778
-83782
-83785
-83783
-83781
-83786
-83787
-83790
-83788
-83778
-83788
-83795
-83787
-83780
-83790
-83793
-83795
-83800
-83810
-83814
-83817
-83822
-83812
-83816
-83824
-83822
-83818
-83826
-83836
-83831
-83828
-83827
-83831
-83834
-83839
-83845
-83854
-83855
-83858
-83856
-83856
-83859
-83865
-83863
-83866
-83866
-83874
-83885
-83886
-83886
-83886
-83880
-83887
-83897
-83892
-83889
-83894
-83912
-83921
-83919
-83921
-83929
-83935
-83939
-83931
-83926
-83938
-83953
-83950
-83939
-83942
-83950
-83955
-83964
-83971
-83979
-83981
-83975
-83994
-84015
-84018
-84002
-84003
-84012
-84012
-84020
-84031
-84021
-84026
-84035
-84025
-84009
-84018
-84038
-84045
-84043
-84034
-84040
-84049
-84051
-84057
-84065
-84064
-84065
-84064
-84067
-84070
-84069
-84073
-84087
-84102
-84101
-84098
-84105
-84117
-84107
-84105
-84121
-84121
-84119
-84118
-84120
-84127
-84129
-84132
-84130
-84139
-84135
-84123
-84130
-84140
-84140
-84138
-84148
-84158
-84164
-84169
-84172
-84183
-84185
-84189
-84195
-84199
-84206
-84206
-84207
-84211
-84215
-84212
-84216
-84221
-84231
-84232
-84219
-84220
-84237
-84239
-84246
-84245
-84247
-84251
-84250
-84256
-84268
-84270
-84276
-84276
-84269
-84270
-84275
-84284
-84288
-84289
-84296
-84309
-84308
-84314
-84304
-84303
-84312
-84312
-84317
-84320
-84322
-84328
-84341
-84340
-84331
-84325
-84327
-84333
-84339
-84341
-84342
-84351
-84353
-84349
-84350
-84361
-84358
-84350
-84336
-84332
-84330
-84320
-84304
-84304
-84295
-84285
-84273
-84264
-84257
-84251
-84239
-84223
-84199
-84185
-84171
-84159
-84142
-84122
-84100
-84073
-84059
-84049
-84023
-83999
-83983
-83954
-83926
-83919
-83898
-83873
-83851
-83820
-83795
-83775
-83759
-83744
-83727
-83707
-83695
-83665
-83644
-83629
-83609
-83590
-83574
-83553
-83546
-83530
-83512
-83498
-83477
-83466
-83452
-83438
-83435
-83421
-83415
-83402
-83395
-83388
-83380
-83378
-83369
-83355
-83355
-83353
-83345
-83352
-83347
-83345
-83342
-83329
-83326
-83322
-83325
-83328
-83329
-83331
-83333
-83342
-83337
-83331
-83343
-83340
-83342
-83358
-83365
-83367
-83363
-83367
-83366
-83376
-83381
-83376
-83382
-83388
-83390
-83398
-83401
-83402
-83405
-83405
-83404
-83408
-83411
-83414
-83422
-83415
-83417
-83422
-83418
-83412
-83414
-83421
-83434
-83439
-83435
-83434
-83435
-83438
-83442
-83437
-83445
-83458
-83458
-83457
-83458
-83476
-83478
-83473
-83476
-83497
-83504
-83509
-83514
-83512
-83515
-83523
-83526
-83531
-83540
-83541
-83528
-83532
-83547
-83537
-83524
-83525
-83530
-83534
-83535
-83538
-83543
-83547
-83548
-83551
-83543
-83541
-83539
-83540
-83548
-83547
-83547
-83536
-83532
-83540
-83541
-83534
-83538
-83538
-83531
-83520
-83522
-83525
-83524
-83520
-83511
-83503
-83505
-83501
-83496
-83493
-83488
-83484
-83477
-83472
-83477
-83473
-83467
-83466
